                   Degree              F_vhoc_n[N]              F_vhoc_t[N]                 F_1_n[N]                 F_2_n[N]                  F_cx[N]                  F_cy[N]           F_resultant[N]
                   0.0000            -8.407254E-01            -4.877324E+01             3.997472E+00             5.379174E+00             1.381702E+00             1.999684E+01             2.004452E+01
                   0.1800            -2.390742E+00            -5.002913E+01             2.779160E+00             4.921218E+00             2.149070E+00             2.068085E+01             2.079221E+01
                   0.3600            -3.110335E+00            -5.008827E+01             2.112284E+00             4.910775E+00             2.812554E+00             2.076934E+01             2.095892E+01
                   0.5400            -3.829246E+00            -5.014821E+01             1.446006E+00             4.901296E+00             3.476438E+00             2.085883E+01             2.114654E+01
                   0.7200            -4.547528E+00            -5.020911E+01             7.803119E-01             4.892703E+00             4.140651E+00             2.094931E+01             2.135459E+01
                   0.9000            -5.265092E+00            -5.027106E+01             1.153142E-01             4.884937E+00             4.805020E+00             2.104077E+01             2.158245E+01
                   1.0800            -5.981964E+00            -5.033414E+01            -5.489996E-01             4.877961E+00             5.469515E+00             2.113318E+01             2.182950E+01
                   1.2600            -6.698294E+00            -5.039839E+01            -1.212765E+00             4.871750E+00             6.134243E+00             2.122653E+01             2.209512E+01
                   1.4400            -7.414002E+00            -5.046383E+01            -1.875900E+00             4.866282E+00             6.799096E+00             2.132076E+01             2.237861E+01
                   1.6200            -8.129108E+00            -5.053048E+01            -2.538421E+00             4.861543E+00             7.464072E+00             2.141582E+01             2.267928E+01
                   1.8000            -8.843575E+00            -5.059833E+01            -3.200292E+00             4.857520E+00             8.129123E+00             2.151166E+01             2.299640E+01
                   1.9800            -9.557468E+00            -5.066740E+01            -3.861578E+00             4.854207E+00             8.794300E+00             2.160824E+01             2.332929E+01
                   2.1600            -1.027072E+01            -5.073765E+01            -4.522215E+00             4.851593E+00             9.459529E+00             2.170548E+01             2.367722E+01
                   2.3400            -1.098336E+01            -5.080910E+01            -5.182230E+00             4.849672E+00             1.012483E+01             2.180335E+01             2.403951E+01
                   2.5200            -1.169535E+01            -5.088173E+01            -5.841597E+00             4.848440E+00             1.079017E+01             2.190176E+01             2.441547E+01
                   2.7000            -1.240668E+01            -5.095552E+01            -6.500305E+00             4.847889E+00             1.145552E+01             2.200068E+01             2.480441E+01
                   2.8800            -1.311736E+01            -5.103047E+01            -7.158361E+00             4.848016E+00             1.212090E+01             2.210003E+01             2.520570E+01
                   3.0600            -1.382734E+01            -5.110656E+01            -7.815735E+00             4.848816E+00             1.278626E+01             2.219975E+01             2.561870E+01
                   3.2400            -1.453664E+01            -5.118378E+01            -8.472432E+00             4.850283E+00             1.345161E+01             2.229979E+01             2.604278E+01
                   3.4200            -1.524525E+01            -5.126211E+01            -9.128447E+00             4.852414E+00             1.411693E+01             2.240009E+01             2.647738E+01
                   3.6000            -1.595313E+01            -5.134155E+01            -9.783765E+00             4.855205E+00             1.478221E+01             2.250058E+01             2.692192E+01
                   3.7800            -1.666028E+01            -5.142208E+01            -1.043837E+01             4.858650E+00             1.544742E+01             2.260120E+01             2.737585E+01
                   3.9600            -1.736670E+01            -5.150368E+01            -1.109227E+01             4.862747E+00             1.611257E+01             2.270190E+01             2.783866E+01
                   4.1400            -1.807236E+01            -5.158634E+01            -1.174544E+01             4.867489E+00             1.677763E+01             2.280260E+01             2.830985E+01
                   4.3200            -1.877726E+01            -5.167004E+01            -1.239789E+01             4.872874E+00             1.744261E+01             2.290325E+01             2.878895E+01
                   4.5000            -1.948137E+01            -5.175478E+01            -1.304958E+01             4.878895E+00             1.810747E+01             2.300379E+01             2.927550E+01
                   4.6800            -2.018469E+01            -5.184053E+01            -1.370053E+01             4.885548E+00             1.877222E+01             2.310415E+01             2.976908E+01
                   4.8600            -2.088721E+01            -5.192728E+01            -1.435073E+01             4.892828E+00             1.943684E+01             2.320428E+01             3.026928E+01
                   5.0400            -2.158892E+01            -5.201501E+01            -1.500016E+01             4.900728E+00             2.010131E+01             2.330411E+01             3.077571E+01
                   5.2200            -2.228980E+01            -5.210370E+01            -1.564882E+01             4.909240E+00             2.076564E+01             2.340358E+01             3.128801E+01
                   5.4000            -2.298985E+01            -5.219333E+01            -1.629670E+01             4.918356E+00             2.142980E+01             2.350264E+01             3.180583E+01
                   5.5800            -2.368905E+01            -5.228387E+01            -1.694380E+01             4.928065E+00             2.209379E+01             2.360122E+01             3.232883E+01
                   5.7600            -2.438740E+01            -5.237530E+01            -1.759012E+01             4.938354E+00             2.275759E+01             2.369927E+01             3.285671E+01
                   5.9400            -2.508490E+01            -5.246758E+01            -1.823565E+01             4.949204E+00             2.342118E+01             2.379673E+01             3.338916E+01
                   6.1200            -2.578155E+01            -5.256067E+01            -1.888041E+01             4.960589E+00             2.408455E+01             2.389356E+01             3.392592E+01
                   6.3000            -2.647737E+01            -5.265451E+01            -1.952441E+01             4.972471E+00             2.474769E+01             2.398971E+01             3.446672E+01
                   6.4800            -2.717238E+01            -5.274901E+01            -2.016767E+01             4.984789E+00             2.541055E+01             2.408516E+01             3.501130E+01
                   6.6600            -2.786664E+01            -5.284402E+01            -2.081027E+01             4.997447E+00             2.607311E+01             2.417989E+01             3.555945E+01
                   6.8400            -2.856025E+01            -5.293935E+01            -2.145228E+01             5.010300E+00             2.673529E+01             2.427395E+01             3.611095E+01
                   7.0200            -2.925331E+01            -5.303478E+01            -2.209380E+01             5.023192E+00             2.739704E+01             2.436738E+01             3.666561E+01
                   7.2000            -2.994587E+01            -5.313018E+01            -2.273489E+01             5.036023E+00             2.805831E+01             2.446021E+01             3.722326E+01
                   7.3800            -3.063794E+01            -5.322547E+01            -2.337558E+01             5.048754E+00             2.871908E+01             2.455245E+01             3.778371E+01
                   7.5600            -3.132952E+01            -5.332064E+01            -2.401584E+01             5.061376E+00             2.937932E+01             2.464410E+01             3.834679E+01
                   7.7400            -3.202059E+01            -5.341568E+01            -2.465568E+01             5.073886E+00             3.003904E+01             2.473513E+01             3.891234E+01
                   7.9200            -3.271113E+01            -5.351057E+01            -2.529509E+01             5.086282E+00             3.069821E+01             2.482554E+01             3.948021E+01
                   8.1000            -3.340113E+01            -5.360531E+01            -2.593404E+01             5.098565E+00             3.135682E+01             2.491530E+01             4.005025E+01
                   8.2800            -3.409056E+01            -5.369988E+01            -2.657253E+01             5.110734E+00             3.201487E+01             2.500441E+01             4.062231E+01
                   8.4600            -3.477940E+01            -5.379428E+01            -2.721056E+01             5.122789E+00             3.267234E+01             2.509284E+01             4.119627E+01
                   8.6400            -3.546764E+01            -5.388850E+01            -2.784809E+01             5.134730E+00             3.332923E+01             2.518059E+01             4.177199E+01
                   8.8200            -3.615526E+01            -5.398252E+01            -2.848514E+01             5.146557E+00             3.398552E+01             2.526763E+01             4.234936E+01
                   9.0000            -3.684225E+01            -5.407635E+01            -2.912168E+01             5.158269E+00             3.464120E+01             2.535394E+01             4.292825E+01
                   9.1800            -3.752858E+01            -5.416996E+01            -2.975770E+01             5.169866E+00             3.529626E+01             2.543952E+01             4.350856E+01
                   9.3600            -3.821423E+01            -5.426336E+01            -3.039320E+01             5.181349E+00             3.595069E+01             2.552435E+01             4.409018E+01
                   9.5400            -3.889920E+01            -5.435654E+01            -3.102815E+01             5.192716E+00             3.660448E+01             2.560840E+01             4.467301E+01
                   9.7200            -3.958345E+01            -5.444948E+01            -3.166256E+01             5.203967E+00             3.725763E+01             2.569166E+01             4.525696E+01
                   9.9000            -4.026698E+01            -5.454218E+01            -3.229640E+01             5.215102E+00             3.791011E+01             2.577411E+01             4.584192E+01
                  10.0800            -4.094977E+01            -5.463463E+01            -3.292968E+01             5.226120E+00             3.856192E+01             2.585574E+01             4.642781E+01
                  10.2600            -4.163179E+01            -5.472683E+01            -3.356237E+01             5.237021E+00             3.921306E+01             2.593653E+01             4.701455E+01
                  10.4400            -4.231304E+01            -5.481876E+01            -3.419446E+01             5.247803E+00             3.986351E+01             2.601646E+01             4.760205E+01
                  10.6200            -4.299349E+01            -5.491042E+01            -3.482595E+01             5.258466E+00             4.051326E+01             2.609551E+01             4.819024E+01
                  10.8000            -4.367313E+01            -5.500181E+01            -3.545683E+01             5.269008E+00             4.116230E+01             2.617367E+01             4.877905E+01
                  10.9800            -4.435195E+01            -5.509292E+01            -3.608708E+01             5.279430E+00             4.181062E+01             2.625093E+01             4.936840E+01
                  11.1600            -4.502992E+01            -5.518375E+01            -3.671670E+01             5.289729E+00             4.245822E+01             2.632726E+01             4.995823E+01
                  11.3400            -4.570703E+01            -5.527428E+01            -3.734567E+01             5.299904E+00             4.310508E+01             2.640264E+01             5.054846E+01
                  11.5200            -4.638327E+01            -5.536452E+01            -3.797399E+01             5.309954E+00             4.375119E+01             2.647708E+01             5.113905E+01
                  11.7000            -4.705862E+01            -5.545446E+01            -3.860164E+01             5.319877E+00             4.439655E+01             2.655054E+01             5.172992E+01
                  11.8800            -4.773306E+01            -5.554409E+01            -3.922861E+01             5.329671E+00             4.504115E+01             2.662302E+01             5.232103E+01
                  12.0600            -4.840659E+01            -5.563342E+01            -3.985490E+01             5.339335E+00             4.568497E+01             2.669450E+01             5.291231E+01
                  12.2400            -4.907917E+01            -5.572244E+01            -4.048050E+01             5.348866E+00             4.632801E+01             2.676497E+01             5.350372E+01
                  12.4200            -4.975081E+01            -5.581115E+01            -4.110539E+01             5.358262E+00             4.697026E+01             2.683441E+01             5.409520E+01
                  12.6000            -5.042149E+01            -5.589955E+01            -4.172957E+01             5.367520E+00             4.761170E+01             2.690282E+01             5.468671E+01
                  12.7800            -5.109120E+01            -5.598764E+01            -4.235303E+01             5.376638E+00             4.825234E+01             2.697019E+01             5.527820E+01
                  12.9600            -5.175991E+01            -5.607541E+01            -4.297575E+01             5.385612E+00             4.889216E+01             2.703650E+01             5.586963E+01
                  13.1400            -5.242762E+01            -5.616287E+01            -4.359774E+01             5.394441E+00             4.953115E+01             2.710174E+01             5.646095E+01
                  13.3200            -5.309432E+01            -5.625002E+01            -4.421898E+01             5.403120E+00             5.016930E+01             2.716591E+01             5.705213E+01
                  13.5000            -5.375999E+01            -5.633685E+01            -4.483947E+01             5.411646E+00             5.080661E+01             2.722900E+01             5.764313E+01
                  13.6800            -5.442463E+01            -5.642338E+01            -4.545919E+01             5.420016E+00             5.144306E+01             2.729101E+01             5.823390E+01
                  13.8600            -5.508821E+01            -5.650959E+01            -4.607814E+01             5.428225E+00             5.207865E+01             2.735192E+01             5.882443E+01
                  14.0400            -5.575074E+01            -5.659551E+01            -4.669630E+01             5.436270E+00             5.271336E+01             2.741174E+01             5.941466E+01
                  14.2200            -5.641219E+01            -5.668112E+01            -4.731369E+01             5.444147E+00             5.334719E+01             2.747046E+01             6.000457E+01
                  14.4000            -5.707256E+01            -5.676643E+01            -4.793027E+01             5.451850E+00             5.398012E+01             2.752808E+01             6.059413E+01
                  14.5800            -5.773184E+01            -5.685145E+01            -4.854606E+01             5.459375E+00             5.461215E+01             2.758460E+01             6.118331E+01
                  14.7600            -5.839002E+01            -5.693619E+01            -4.916103E+01             5.466718E+00             5.524327E+01             2.764002E+01             6.177208E+01
                  14.9400            -5.904709E+01            -5.702064E+01            -4.977519E+01             5.473874E+00             5.587347E+01             2.769435E+01             6.236042E+01
                  15.1200            -5.970304E+01            -5.710481E+01            -5.038853E+01             5.480836E+00             5.650274E+01             2.774757E+01             6.294829E+01
                  15.3000            -6.035787E+01            -5.718871E+01            -5.100104E+01             5.487601E+00             5.713106E+01             2.779971E+01             6.353567E+01
                  15.4800            -6.101155E+01            -5.727235E+01            -5.161271E+01             5.494162E+00             5.775843E+01             2.785076E+01             6.412255E+01
                  15.6600            -6.166410E+01            -5.735573E+01            -5.222354E+01             5.500513E+00             5.838484E+01             2.790074E+01             6.470889E+01
                  15.8400            -6.231549E+01            -5.743886E+01            -5.283352E+01             5.506650E+00             5.901028E+01             2.794964E+01             6.529468E+01
                  16.0200            -6.296572E+01            -5.752175E+01            -5.344265E+01             5.512565E+00             5.963473E+01             2.799748E+01             6.587989E+01
                  16.2000            -6.361478E+01            -5.760441E+01            -5.405092E+01             5.518253E+00             6.025819E+01             2.804426E+01             6.646451E+01
                  16.3800            -6.426267E+01            -5.768685E+01            -5.465832E+01             5.523707E+00             6.088065E+01             2.809000E+01             6.704850E+01
                  16.5600            -6.490938E+01            -5.776907E+01            -5.526486E+01             5.528921E+00             6.150209E+01             2.813472E+01             6.763187E+01
                  16.7400            -6.555491E+01            -5.785108E+01            -5.587051E+01             5.533889E+00             6.212251E+01             2.817841E+01             6.821458E+01
                  16.9200            -6.619924E+01            -5.793290E+01            -5.647529E+01             5.538604E+00             6.274189E+01             2.822111E+01             6.879663E+01
                  17.1000            -6.684237E+01            -5.801452E+01            -5.707917E+01             5.543060E+00             6.336023E+01             2.826281E+01             6.937799E+01
                  17.2800            -6.748430E+01            -5.809598E+01            -5.768217E+01             5.547249E+00             6.397751E+01             2.830354E+01             6.995864E+01
                  17.4600            -6.812501E+01            -5.817726E+01            -5.828427E+01             5.551165E+00             6.459371E+01             2.834332E+01             7.053858E+01
