                   Degree           dqdtheta_sc[W]           dqdtheta_dc[W]           dqdtheta_hc[W]       dqdtheta_resoil[W]          dqdtheta_oil[W]
                   0.0000             1.169023E-03             1.819785E+01             0.000000E+00             2.666687E+00             1.653645E+03
                   0.1800             3.412268E-02             1.822995E+01             0.000000E+00             2.588275E+00             1.653729E+03
                   0.3600             5.949951E-02             1.826345E+01             0.000000E+00             2.569341E+00             1.653747E+03
                   0.5400             8.233321E-02             1.829575E+01             0.000000E+00             2.556461E+00             1.653758E+03
                   0.7200             1.037383E-01             1.832678E+01             0.000000E+00             2.547781E+00             1.653765E+03
                   0.9000             1.242166E-01             1.835648E+01             0.000000E+00             2.541972E+00             1.653768E+03
                   1.0800             1.440340E-01             1.838485E+01             0.000000E+00             2.538103E+00             1.653770E+03
                   1.2600             1.633441E-01             1.841185E+01             0.000000E+00             2.535535E+00             1.653770E+03
                   1.4400             1.822421E-01             1.843748E+01             0.000000E+00             2.533834E+00             1.653770E+03
                   1.6200             2.007904E-01             1.846175E+01             0.000000E+00             2.532704E+00             1.653768E+03
                   1.8000             2.190326E-01             1.848466E+01             0.000000E+00             2.531947E+00             1.653767E+03
                   1.9800             2.370013E-01             1.850620E+01             0.000000E+00             2.531433E+00             1.653765E+03
                   2.1600             2.547217E-01             1.852639E+01             0.000000E+00             2.531071E+00             1.653763E+03
                   2.3400             2.722144E-01             1.854524E+01             0.000000E+00             2.530804E+00             1.653762E+03
                   2.5200             2.894971E-01             1.856276E+01             0.000000E+00             2.530591E+00             1.653760E+03
                   2.7000             3.065847E-01             1.857895E+01             0.000000E+00             2.530409E+00             1.653758E+03
                   2.8800             3.234907E-01             1.859384E+01             0.000000E+00             2.530240E+00             1.653757E+03
                   3.0600             3.402271E-01             1.860741E+01             0.000000E+00             2.530073E+00             1.653755E+03
                   3.2400             3.568044E-01             1.861970E+01             0.000000E+00             2.529903E+00             1.653754E+03
                   3.4200             3.732325E-01             1.863071E+01             0.000000E+00             2.529724E+00             1.653752E+03
                   3.6000             3.895202E-01             1.864044E+01             0.000000E+00             2.529535E+00             1.653751E+03
                   3.7800             4.056756E-01             1.864891E+01             0.000000E+00             2.529334E+00             1.653750E+03
                   3.9600             4.217062E-01             1.865612E+01             0.000000E+00             2.529121E+00             1.653749E+03
                   4.1400             4.376188E-01             1.866210E+01             0.000000E+00             2.528897E+00             1.653748E+03
                   4.3200             4.534198E-01             1.866685E+01             0.000000E+00             2.528662E+00             1.653748E+03
                   4.5000             4.691151E-01             1.867037E+01             0.000000E+00             2.528417E+00             1.653747E+03
                   4.6800             4.847101E-01             1.867269E+01             0.000000E+00             2.528162E+00             1.653746E+03
                   4.8600             5.002100E-01             1.867381E+01             0.000000E+00             2.527899E+00             1.653746E+03
                   5.0400             5.156196E-01             1.867375E+01             0.000000E+00             2.527629E+00             1.653746E+03
                   5.2200             5.309435E-01             1.867252E+01             0.000000E+00             2.527352E+00             1.653745E+03
                   5.4000             5.461859E-01             1.867015E+01             0.000000E+00             2.527070E+00             1.653745E+03
                   5.5800             5.613510E-01             1.866664E+01             0.000000E+00             2.526783E+00             1.653745E+03
                   5.7600             5.764426E-01             1.866203E+01             0.000000E+00             2.526494E+00             1.653745E+03
                   5.9400             5.914645E-01             1.865635E+01             0.000000E+00             2.526203E+00             1.653745E+03
                   6.1200             6.064202E-01             1.864965E+01             0.000000E+00             2.525910E+00             1.653745E+03
                   6.3000             6.213131E-01             1.864199E+01             0.000000E+00             2.525619E+00             1.653746E+03
                   6.4800             6.361466E-01             1.863348E+01             0.000000E+00             2.525329E+00             1.653746E+03
                   6.6600             6.509239E-01             1.862428E+01             0.000000E+00             2.525043E+00             1.653747E+03
                   6.8400             6.656480E-01             1.861464E+01             0.000000E+00             2.524762E+00             1.653747E+03
                   7.0200             6.803221E-01             1.860483E+01             0.000000E+00             2.524489E+00             1.653747E+03
                   7.2000             6.949490E-01             1.859502E+01             0.000000E+00             2.524227E+00             1.653748E+03
                   7.3800             7.095317E-01             1.858527E+01             0.000000E+00             2.523975E+00             1.653748E+03
                   7.5600             7.240730E-01             1.857560E+01             0.000000E+00             2.523736E+00             1.653749E+03
                   7.7400             7.385756E-01             1.856601E+01             0.000000E+00             2.523510E+00             1.653749E+03
                   7.9200             7.530424E-01             1.855651E+01             0.000000E+00             2.523299E+00             1.653749E+03
                   8.1000             7.674759E-01             1.854709E+01             0.000000E+00             2.523103E+00             1.653750E+03
                   8.2800             7.818788E-01             1.853776E+01             0.000000E+00             2.522923E+00             1.653750E+03
                   8.4600             7.962537E-01             1.852851E+01             0.000000E+00             2.522760E+00             1.653751E+03
                   8.6400             8.106031E-01             1.851934E+01             0.000000E+00             2.522615E+00             1.653751E+03
                   8.8200             8.249297E-01             1.851026E+01             0.000000E+00             2.522490E+00             1.653751E+03
                   9.0000             8.392359E-01             1.850126E+01             0.000000E+00             2.522385E+00             1.653751E+03
                   9.1800             8.535241E-01             1.849235E+01             0.000000E+00             2.522301E+00             1.653752E+03
                   9.3600             8.677969E-01             1.848351E+01             0.000000E+00             2.522238E+00             1.653752E+03
                   9.5400             8.820565E-01             1.847476E+01             0.000000E+00             2.522198E+00             1.653752E+03
                   9.7200             8.963054E-01             1.846609E+01             0.000000E+00             2.522182E+00             1.653752E+03
                   9.9000             9.105460E-01             1.845750E+01             0.000000E+00             2.522190E+00             1.653752E+03
                  10.0800             9.247804E-01             1.844899E+01             0.000000E+00             2.522223E+00             1.653752E+03
                  10.2600             9.390110E-01             1.844056E+01             0.000000E+00             2.522281E+00             1.653753E+03
                  10.4400             9.532400E-01             1.843221E+01             0.000000E+00             2.522366E+00             1.653753E+03
                  10.6200             9.674696E-01             1.842394E+01             0.000000E+00             2.522477E+00             1.653753E+03
                  10.8000             9.817019E-01             1.841575E+01             0.000000E+00             2.522616E+00             1.653753E+03
                  10.9800             9.959390E-01             1.840763E+01             0.000000E+00             2.522783E+00             1.653753E+03
                  11.1600             1.010183E+00             1.839960E+01             0.000000E+00             2.522978E+00             1.653752E+03
                  11.3400             1.024436E+00             1.839164E+01             0.000000E+00             2.523203E+00             1.653752E+03
                  11.5200             1.038699E+00             1.838376E+01             0.000000E+00             2.523456E+00             1.653752E+03
                  11.7000             1.052975E+00             1.837595E+01             0.000000E+00             2.523738E+00             1.653752E+03
                  11.8800             1.067266E+00             1.836822E+01             0.000000E+00             2.524051E+00             1.653752E+03
                  12.0600             1.081573E+00             1.836057E+01             0.000000E+00             2.524393E+00             1.653752E+03
                  12.2400             1.095897E+00             1.835299E+01             0.000000E+00             2.524765E+00             1.653751E+03
                  12.4200             1.110241E+00             1.834549E+01             0.000000E+00             2.525166E+00             1.653751E+03
                  12.6000             1.124606E+00             1.833806E+01             0.000000E+00             2.525598E+00             1.653751E+03
                  12.7800             1.138993E+00             1.833070E+01             0.000000E+00             2.526059E+00             1.653750E+03
                  12.9600             1.153404E+00             1.832342E+01             0.000000E+00             2.526550E+00             1.653750E+03
                  13.1400             1.167841E+00             1.831621E+01             0.000000E+00             2.527070E+00             1.653749E+03
                  13.3200             1.182303E+00             1.830907E+01             0.000000E+00             2.527619E+00             1.653749E+03
                  13.5000             1.196792E+00             1.830200E+01             0.000000E+00             2.528196E+00             1.653748E+03
                  13.6800             1.211310E+00             1.829501E+01             0.000000E+00             2.528802E+00             1.653748E+03
                  13.8600             1.225857E+00             1.828808E+01             0.000000E+00             2.529435E+00             1.653747E+03
                  14.0400             1.240433E+00             1.828122E+01             0.000000E+00             2.530095E+00             1.653747E+03
                  14.2200             1.255041E+00             1.827444E+01             0.000000E+00             2.530781E+00             1.653746E+03
                  14.4000             1.269679E+00             1.826772E+01             0.000000E+00             2.531493E+00             1.653745E+03
                  14.5800             1.284349E+00             1.826106E+01             0.000000E+00             2.532229E+00             1.653745E+03
                  14.7600             1.299051E+00             1.825448E+01             0.000000E+00             2.532989E+00             1.653744E+03
                  14.9400             1.313785E+00             1.824796E+01             0.000000E+00             2.533773E+00             1.653743E+03
                  15.1200             1.328551E+00             1.824151E+01             0.000000E+00             2.534578E+00             1.653742E+03
                  15.3000             1.343350E+00             1.823513E+01             0.000000E+00             2.535404E+00             1.653742E+03
                  15.4800             1.358182E+00             1.822881E+01             0.000000E+00             2.536250E+00             1.653741E+03
                  15.6600             1.373045E+00             1.822255E+01             0.000000E+00             2.537115E+00             1.653740E+03
                  15.8400             1.387940E+00             1.821636E+01             0.000000E+00             2.537997E+00             1.653739E+03
                  16.0200             1.402867E+00             1.821023E+01             0.000000E+00             2.538896E+00             1.653738E+03
                  16.2000             1.417825E+00             1.820416E+01             0.000000E+00             2.539810E+00             1.653737E+03
                  16.3800             1.432813E+00             1.819816E+01             0.000000E+00             2.540738E+00             1.653736E+03
                  16.5600             1.447830E+00             1.819221E+01             0.000000E+00             2.541679E+00             1.653735E+03
                  16.7400             1.462877E+00             1.818633E+01             0.000000E+00             2.542631E+00             1.653734E+03
                  16.9200             1.477952E+00             1.818051E+01             0.000000E+00             2.543593E+00             1.653734E+03
                  17.1000             1.493054E+00             1.817474E+01             0.000000E+00             2.544563E+00             1.653733E+03
                  17.2800             1.508182E+00             1.816904E+01             0.000000E+00             2.545541E+00             1.653732E+03
                  17.4600             1.523335E+00             1.816339E+01             0.000000E+00             2.546524E+00             1.653731E+03
                  17.6400             1.538512E+00             1.815780E+01             0.000000E+00             2.547512E+00             1.653730E+03
                  17.8200             1.553712E+00             1.815227E+01             0.000000E+00             2.548503E+00             1.653729E+03
                  18.0000             1.568932E+00             1.814679E+01             0.000000E+00             2.549496E+00             1.653728E+03
                  18.1800             1.584173E+00             1.814137E+01             0.000000E+00             2.550489E+00             1.653727E+03
                  18.3600             1.599432E+00             1.813600E+01             0.000000E+00             2.551482E+00             1.653726E+03
                  18.5400             1.614708E+00             1.813069E+01             0.000000E+00             2.552472E+00             1.653725E+03
                  18.7200             1.629999E+00             1.812543E+01             0.000000E+00             2.553458E+00             1.653724E+03
                  18.9000             1.645304E+00             1.812022E+01             0.000000E+00             2.554439E+00             1.653723E+03
                  19.0800             1.660621E+00             1.811507E+01             0.000000E+00             2.555414E+00             1.653722E+03
                  19.2600             1.675949E+00             1.810996E+01             0.000000E+00             2.556382E+00             1.653721E+03
                  19.4400             1.691285E+00             1.810491E+01             0.000000E+00             2.557340E+00             1.653720E+03
                  19.6200             1.706629E+00             1.809991E+01             0.000000E+00             2.558289E+00             1.653719E+03
                  19.8000             1.721978E+00             1.809496E+01             0.000000E+00             2.559227E+00             1.653718E+03
                  19.9800             1.737331E+00             1.809005E+01             0.000000E+00             2.560153E+00             1.653717E+03
                  20.1600             1.752686E+00             1.808520E+01             0.000000E+00             2.561065E+00             1.653716E+03
                  20.3400             1.768041E+00             1.808039E+01             0.000000E+00             2.561963E+00             1.653715E+03
                  20.5200             1.783395E+00             1.807563E+01             0.000000E+00             2.562846E+00             1.653714E+03
                  20.7000             1.798746E+00             1.807091E+01             0.000000E+00             2.563713E+00             1.653714E+03
                  20.8800             1.814091E+00             1.806625E+01             0.000000E+00             2.564562E+00             1.653713E+03
                  21.0600             1.829431E+00             1.806162E+01             0.000000E+00             2.565393E+00             1.653712E+03
                  21.2400             1.844762E+00             1.805704E+01             0.000000E+00             2.566205E+00             1.653711E+03
                  21.4200             1.860083E+00             1.805251E+01             0.000000E+00             2.566998E+00             1.653710E+03
                  21.6000             1.875392E+00             1.804801E+01             0.000000E+00             2.567770E+00             1.653710E+03
                  21.7800             1.890688E+00             1.804356E+01             0.000000E+00             2.568521E+00             1.653709E+03
                  21.9600             1.905970E+00             1.803916E+01             0.000000E+00             2.569250E+00             1.653708E+03
                  22.1400             1.921235E+00             1.803479E+01             0.000000E+00             2.569956E+00             1.653708E+03
                  22.3200             1.936483E+00             1.803046E+01             0.000000E+00             2.570640E+00             1.653707E+03
                  22.5000             1.951711E+00             1.802618E+01             0.000000E+00             2.571300E+00             1.653706E+03
                  22.6800             1.966918E+00             1.802193E+01             0.000000E+00             2.571936E+00             1.653706E+03
                  22.8600             1.982104E+00             1.801772E+01             0.000000E+00             2.572547E+00             1.653705E+03
                  23.0400             1.997266E+00             1.801355E+01             0.000000E+00             2.573134E+00             1.653705E+03
                  23.2200             2.012403E+00             1.800942E+01             0.000000E+00             2.573695E+00             1.653704E+03
                  23.4000             2.027514E+00             1.800533E+01             0.000000E+00             2.574231E+00             1.653704E+03
