                   Degree              F_vhoc_n[N]              F_vhoc_t[N]                 F_1_n[N]                 F_2_n[N]                  F_cx[N]                  F_cy[N]           F_resultant[N]
                   0.0000            -9.328699E-01            -4.900180E+01             3.919351E+00             5.441871E+00             1.522519E+00             2.009566E+01             2.015325E+01
                   0.1800            -2.785894E+00            -5.172138E+01             2.753736E+00             4.351822E+00             1.605331E+00             2.147529E+01             2.153521E+01
                   0.3600            -3.154040E+00            -5.171637E+01             2.433645E+00             4.315199E+00             1.895983E+00             2.153149E+01             2.161480E+01
                   0.5400            -3.517132E+00            -5.170683E+01             2.116749E+00             4.283175E+00             2.187968E+00             2.158669E+01             2.169729E+01
                   0.7200            -3.877501E+00            -5.169734E+01             1.801800E+00             4.253944E+00             2.480721E+00             2.164292E+01             2.178463E+01
                   0.9000            -4.236012E+00            -5.168967E+01             1.488360E+00             4.226784E+00             2.773955E+00             2.170093E+01             2.187751E+01
                   1.0800            -4.593024E+00            -5.168449E+01             1.176235E+00             4.201414E+00             3.067575E+00             2.176095E+01             2.197610E+01
                   1.2600            -4.948735E+00            -5.168205E+01             8.652945E-01             4.177720E+00             3.361596E+00             2.182298E+01             2.208037E+01
                   1.4400            -5.303159E+00            -5.168241E+01             5.555475E-01             4.155653E+00             3.655956E+00             2.188694E+01             2.219018E+01
                   1.6200            -5.656322E+00            -5.168558E+01             2.469762E-01             4.135194E+00             3.950650E+00             2.195273E+01             2.230538E+01
                   1.8000            -6.008216E+00            -5.169152E+01            -6.040788E-02             4.116329E+00             4.245652E+00             2.202022E+01             2.242578E+01
                   1.9800            -6.358872E+00            -5.170022E+01            -3.666354E-01             4.099053E+00             4.540985E+00             2.208927E+01             2.255120E+01
                   2.1600            -6.708263E+00            -5.171163E+01            -6.716792E-01             4.083359E+00             4.836615E+00             2.215977E+01             2.268145E+01
                   2.3400            -7.056400E+00            -5.172573E+01            -9.755524E-01             4.069245E+00             5.132551E+00             2.223158E+01             2.281635E+01
                   2.5200            -7.403272E+00            -5.174247E+01            -1.278244E+00             4.056706E+00             5.428778E+00             2.230455E+01             2.295571E+01
                   2.7000            -7.748874E+00            -5.176183E+01            -1.579750E+00             4.045738E+00             5.725290E+00             2.237857E+01             2.309934E+01
                   2.8800            -8.093208E+00            -5.178376E+01            -1.880074E+00             4.036338E+00             6.022089E+00             2.245349E+01             2.324704E+01
                   3.0600            -8.436261E+00            -5.180824E+01            -2.179205E+00             4.028502E+00             6.319161E+00             2.252919E+01             2.339864E+01
                   3.2400            -8.778035E+00            -5.183523E+01            -2.477145E+00             4.022227E+00             6.616509E+00             2.260553E+01             2.355394E+01
                   3.4200            -9.118530E+00            -5.186469E+01            -2.773894E+00             4.017507E+00             6.914131E+00             2.268238E+01             2.371277E+01
                   3.6000            -9.457740E+00            -5.189658E+01            -3.069450E+00             4.014335E+00             7.212021E+00             2.275960E+01             2.387494E+01
                   3.7800            -9.795665E+00            -5.193085E+01            -3.363812E+00             4.012701E+00             7.510174E+00             2.283706E+01             2.404026E+01
                   3.9600            -1.013231E+01            -5.196746E+01            -3.656990E+00             4.012589E+00             7.808589E+00             2.291463E+01             2.420856E+01
                   4.1400            -1.046770E+01            -5.200634E+01            -3.948994E+00             4.013972E+00             8.107253E+00             2.299219E+01             2.437967E+01
                   4.3200            -1.080185E+01            -5.204738E+01            -4.239858E+00             4.016799E+00             8.406155E+00             2.306960E+01             2.455341E+01
                   4.5000            -1.113486E+01            -5.209040E+01            -4.529660E+00             4.020945E+00             8.705253E+00             2.314678E+01             2.472963E+01
                   4.6800            -1.146701E+01            -5.213487E+01            -4.818655E+00             4.026045E+00             9.004433E+00             2.322367E+01             2.490820E+01
                   4.8600            -1.179882E+01            -5.217982E+01            -5.107333E+00             4.031391E+00             9.303461E+00             2.330037E+01             2.508908E+01
                   5.0400            -1.213053E+01            -5.222484E+01            -5.395898E+00             4.036687E+00             9.602238E+00             2.337693E+01             2.527220E+01
                   5.2200            -1.246213E+01            -5.226987E+01            -5.684351E+00             4.041921E+00             9.900753E+00             2.345333E+01             2.545748E+01
                   5.4000            -1.279360E+01            -5.231489E+01            -5.972685E+00             4.047099E+00             1.019900E+01             2.352954E+01             2.564486E+01
                   5.5800            -1.312492E+01            -5.235989E+01            -6.260888E+00             4.052227E+00             1.049698E+01             2.360555E+01             2.583426E+01
                   5.7600            -1.345608E+01            -5.240483E+01            -6.548952E+00             4.057312E+00             1.079469E+01             2.368134E+01             2.602559E+01
                   5.9400            -1.378706E+01            -5.244970E+01            -6.836865E+00             4.062360E+00             1.109213E+01             2.375687E+01             2.621878E+01
                   6.1200            -1.411784E+01            -5.249447E+01            -7.124619E+00             4.067380E+00             1.138928E+01             2.383214E+01             2.641376E+01
                   6.3000            -1.444840E+01            -5.253913E+01            -7.412204E+00             4.072377E+00             1.168616E+01             2.390710E+01             2.661044E+01
                   6.4800            -1.477872E+01            -5.258365E+01            -7.699606E+00             4.077358E+00             1.198275E+01             2.398173E+01             2.680876E+01
                   6.6600            -1.510879E+01            -5.262800E+01            -7.986820E+00             4.082331E+00             1.227906E+01             2.405601E+01             2.700864E+01
                   6.8400            -1.543859E+01            -5.267217E+01            -8.273832E+00             4.087302E+00             1.257507E+01             2.412990E+01             2.721001E+01
                   7.0200            -1.576809E+01            -5.271614E+01            -8.560633E+00             4.092280E+00             1.287080E+01             2.420337E+01             2.741278E+01
                   7.2000            -1.609729E+01            -5.275987E+01            -8.847213E+00             4.097269E+00             1.316624E+01             2.427639E+01             2.761689E+01
                   7.3800            -1.642616E+01            -5.280336E+01            -9.133563E+00             4.102279E+00             1.346138E+01             2.434892E+01             2.782227E+01
                   7.5600            -1.675468E+01            -5.284657E+01            -9.419671E+00             4.107316E+00             1.375622E+01             2.442094E+01             2.802884E+01
                   7.7400            -1.708284E+01            -5.288949E+01            -9.705527E+00             4.112387E+00             1.405077E+01             2.449240E+01             2.823653E+01
                   7.9200            -1.741061E+01            -5.293209E+01            -9.991121E+00             4.117499E+00             1.434502E+01             2.456327E+01             2.844527E+01
                   8.1000            -1.773798E+01            -5.297435E+01            -1.027644E+01             4.122660E+00             1.463897E+01             2.463350E+01             2.865500E+01
                   8.2800            -1.806493E+01            -5.301626E+01            -1.056148E+01             4.127876E+00             1.493262E+01             2.470307E+01             2.886564E+01
                   8.4600            -1.839144E+01            -5.305778E+01            -1.084623E+01             4.133155E+00             1.522598E+01             2.477193E+01             2.907712E+01
                   8.6400            -1.871749E+01            -5.309890E+01            -1.113068E+01             4.138502E+00             1.551903E+01             2.484005E+01             2.928938E+01
                   8.8200            -1.904307E+01            -5.313960E+01            -1.141481E+01             4.143926E+00             1.581177E+01             2.490737E+01             2.950236E+01
                   9.0000            -1.936816E+01            -5.317986E+01            -1.169862E+01             4.149433E+00             1.610422E+01             2.497386E+01             2.971598E+01
                   9.1800            -1.969273E+01            -5.321965E+01            -1.198210E+01             4.155029E+00             1.639637E+01             2.503948E+01             2.993019E+01
                   9.3600            -2.001677E+01            -5.325897E+01            -1.226524E+01             4.160720E+00             1.668822E+01             2.510418E+01             3.014493E+01
                   9.5400            -2.034027E+01            -5.329778E+01            -1.254803E+01             4.166514E+00             1.697977E+01             2.516793E+01             3.036012E+01
                   9.7200            -2.066321E+01            -5.333608E+01            -1.283046E+01             4.172416E+00             1.727102E+01             2.523067E+01             3.057572E+01
                   9.9000            -2.098557E+01            -5.337384E+01            -1.311252E+01             4.178431E+00             1.756197E+01             2.529237E+01             3.079167E+01
                  10.0800            -2.130733E+01            -5.341105E+01            -1.339420E+01             4.184567E+00             1.785262E+01             2.535298E+01             3.100790E+01
                  10.2600            -2.162848E+01            -5.344769E+01            -1.367549E+01             4.190826E+00             1.814298E+01             2.541247E+01             3.122437E+01
                  10.4400            -2.194900E+01            -5.348376E+01            -1.395639E+01             4.197216E+00             1.843304E+01             2.547078E+01             3.144102E+01
                  10.6200            -2.226888E+01            -5.351922E+01            -1.423688E+01             4.203740E+00             1.872281E+01             2.552787E+01             3.165780E+01
                  10.8000            -2.258810E+01            -5.355408E+01            -1.451696E+01             4.210404E+00             1.901229E+01             2.558371E+01             3.187465E+01
                  10.9800            -2.290665E+01            -5.358831E+01            -1.479662E+01             4.217210E+00             1.930149E+01             2.563825E+01             3.209155E+01
                  11.1600            -2.322452E+01            -5.362192E+01            -1.507585E+01             4.224164E+00             1.959039E+01             2.569146E+01             3.230842E+01
                  11.3400            -2.354169E+01            -5.365488E+01            -1.535465E+01             4.231267E+00             1.987901E+01             2.574329E+01             3.252525E+01
                  11.5200            -2.385815E+01            -5.368719E+01            -1.563300E+01             4.238524E+00             2.016734E+01             2.579370E+01             3.274197E+01
                  11.7000            -2.417389E+01            -5.371884E+01            -1.591091E+01             4.245936E+00             2.045539E+01             2.584266E+01             3.295855E+01
                  11.8800            -2.448889E+01            -5.374983E+01            -1.618836E+01             4.253506E+00             2.074316E+01             2.589014E+01             3.317496E+01
                  12.0600            -2.480315E+01            -5.378014E+01            -1.646535E+01             4.261235E+00             2.103066E+01             2.593610E+01             3.339116E+01
                  12.2400            -2.511666E+01            -5.380978E+01            -1.674187E+01             4.269125E+00             2.131788E+01             2.598050E+01             3.360711E+01
                  12.4200            -2.542940E+01            -5.383874E+01            -1.701791E+01             4.277176E+00             2.160482E+01             2.602332E+01             3.382279E+01
                  12.6000            -2.574138E+01            -5.386703E+01            -1.729349E+01             4.285388E+00             2.189149E+01             2.606453E+01             3.403817E+01
                  12.7800            -2.605257E+01            -5.389463E+01            -1.756857E+01             4.293761E+00             2.217789E+01             2.610410E+01             3.425322E+01
                  12.9600            -2.636298E+01            -5.392156E+01            -1.784317E+01             4.302294E+00             2.246402E+01             2.614201E+01             3.446791E+01
                  13.1400            -2.667261E+01            -5.394781E+01            -1.811728E+01             4.310986E+00             2.274988E+01             2.617824E+01             3.468223E+01
                  13.3200            -2.698143E+01            -5.397339E+01            -1.839090E+01             4.319834E+00             2.303548E+01             2.621276E+01             3.489616E+01
                  13.5000            -2.728946E+01            -5.399831E+01            -1.866402E+01             4.328837E+00             2.332081E+01             2.624556E+01             3.510968E+01
                  13.6800            -2.759668E+01            -5.402257E+01            -1.893664E+01             4.337991E+00             2.360587E+01             2.627663E+01             3.532277E+01
                  13.8600            -2.790309E+01            -5.404618E+01            -1.920875E+01             4.347293E+00             2.389067E+01             2.630594E+01             3.553543E+01
                  14.0400            -2.820870E+01            -5.406914E+01            -1.948037E+01             4.356738E+00             2.417521E+01             2.633350E+01             3.574764E+01
                  14.2200            -2.851350E+01            -5.409148E+01            -1.975147E+01             4.366323E+00             2.445949E+01             2.635929E+01             3.595940E+01
                  14.4000            -2.881748E+01            -5.411320E+01            -2.002207E+01             4.376042E+00             2.474350E+01             2.638332E+01             3.617071E+01
                  14.5800            -2.912066E+01            -5.413431E+01            -2.029216E+01             4.385889E+00             2.502724E+01             2.640557E+01             3.638155E+01
                  14.7600            -2.942303E+01            -5.415484E+01            -2.056174E+01             4.395858E+00             2.531072E+01             2.642606E+01             3.659193E+01
                  14.9400            -2.972460E+01            -5.417479E+01            -2.083082E+01             4.405943E+00             2.559394E+01             2.644478E+01             3.680185E+01
                  15.1200            -3.002535E+01            -5.419418E+01            -2.109938E+01             4.416137E+00             2.587689E+01             2.646174E+01             3.701131E+01
                  15.3000            -3.032531E+01            -5.421303E+01            -2.136744E+01             4.426432E+00             2.615957E+01             2.647696E+01             3.722032E+01
                  15.4800            -3.062448E+01            -5.423136E+01            -2.163499E+01             4.436820E+00             2.644198E+01             2.649044E+01             3.742889E+01
                  15.6600            -3.092285E+01            -5.424919E+01            -2.190204E+01             4.447293E+00             2.672412E+01             2.650221E+01             3.763702E+01
                  15.8400            -3.122043E+01            -5.426654E+01            -2.216858E+01             4.457842E+00             2.700598E+01             2.651227E+01             3.784472E+01
                  16.0200            -3.151723E+01            -5.428344E+01            -2.243462E+01             4.468459E+00             2.728756E+01             2.652065E+01             3.805201E+01
                  16.2000            -3.181326E+01            -5.429989E+01            -2.270017E+01             4.479132E+00             2.756886E+01             2.652738E+01             3.825890E+01
                  16.3800            -3.210852E+01            -5.431594E+01            -2.296521E+01             4.489854E+00             2.784987E+01             2.653247E+01             3.846540E+01
                  16.5600            -3.240302E+01            -5.433159E+01            -2.322976E+01             4.500614E+00             2.813059E+01             2.653596E+01             3.867154E+01
                  16.7400            -3.269677E+01            -5.434688E+01            -2.349381E+01             4.511401E+00             2.841102E+01             2.653788E+01             3.887731E+01
                  16.9200            -3.298977E+01            -5.436182E+01            -2.375738E+01             4.522204E+00             2.869114E+01             2.653827E+01             3.908275E+01
                  17.1000            -3.328204E+01            -5.437645E+01            -2.402046E+01             4.533015E+00             2.897096E+01             2.653714E+01             3.928787E+01
                  17.2800            -3.357358E+01            -5.439080E+01            -2.428305E+01             4.543820E+00             2.925047E+01             2.653455E+01             3.949269E+01
                  17.4600            -3.386440E+01            -5.440487E+01            -2.454517E+01             4.554610E+00             2.952966E+01             2.653053E+01             3.969723E+01
