                   Degree              F_vhoc_n[N]              F_vhoc_t[N]                 F_1_n[N]                 F_2_n[N]                  F_cx[N]                  F_cy[N]           F_resultant[N]
                   0.0000            -9.781596E-01            -4.871372E+01             3.878419E+00             5.285591E+00             1.407172E+00             1.998975E+01             2.003921E+01
                   0.1800            -2.504451E+00            -5.032081E+01             2.768609E+00             4.673318E+00             1.911760E+00             2.083554E+01             2.092306E+01
                   0.3600            -3.064134E+00            -5.035797E+01             2.258168E+00             4.658526E+00             2.414461E+00             2.090975E+01             2.104869E+01
                   0.5400            -3.622492E+00            -5.039544E+01             1.748726E+00             4.645242E+00             2.917666E+00             2.098476E+01             2.118662E+01
                   0.7200            -4.179792E+00            -5.043378E+01             1.240153E+00             4.633231E+00             3.421268E+00             2.106073E+01             2.133681E+01
                   0.9000            -4.736096E+00            -5.047332E+01             7.324600E-01             4.622351E+00             3.925106E+00             2.113774E+01             2.149909E+01
                   1.0800            -5.291500E+00            -5.051425E+01             2.256001E-01             4.612515E+00             4.429140E+00             2.121581E+01             2.167320E+01
                   1.2600            -5.846157E+00            -5.055666E+01            -2.805519E-01             4.603674E+00             4.933441E+00             2.129492E+01             2.185893E+01
                   1.4400            -6.400028E+00            -5.060062E+01            -7.859449E-01             4.595795E+00             5.437922E+00             2.137504E+01             2.205591E+01
                   1.6200            -6.953140E+00            -5.064615E+01            -1.290598E+00             4.588857E+00             5.942581E+00             2.145610E+01             2.226384E+01
                   1.8000            -7.505472E+00            -5.069324E+01            -1.794488E+00             4.582847E+00             6.447377E+00             2.153804E+01             2.248234E+01
                   1.9800            -8.057075E+00            -5.074190E+01            -2.297665E+00             4.577757E+00             6.952350E+00             2.162079E+01             2.271109E+01
                   2.1600            -8.607902E+00            -5.079211E+01            -2.800082E+00             4.573578E+00             7.457445E+00             2.170428E+01             2.294971E+01
                   2.3400            -9.157972E+00            -5.084387E+01            -3.301758E+00             4.570305E+00             7.962676E+00             2.178844E+01             2.319785E+01
                   2.5200            -9.707263E+00            -5.089716E+01            -3.802676E+00             4.567934E+00             8.468018E+00             2.187318E+01             2.345514E+01
                   2.7000            -1.025576E+01            -5.095195E+01            -4.302826E+00             4.566460E+00             8.973458E+00             2.195844E+01             2.372122E+01
                   2.8800            -1.080348E+01            -5.100824E+01            -4.802214E+00             4.565879E+00             9.478998E+00             2.204413E+01             2.399573E+01
                   3.0600            -1.135038E+01            -5.106600E+01            -5.300818E+00             4.566188E+00             9.984612E+00             2.213018E+01             2.427833E+01
                   3.2400            -1.189648E+01            -5.112521E+01            -5.798642E+00             4.567381E+00             1.049030E+01             2.221651E+01             2.456867E+01
                   3.4200            -1.244175E+01            -5.118586E+01            -6.295683E+00             4.569454E+00             1.099606E+01             2.230304E+01             2.486642E+01
                   3.6000            -1.298620E+01            -5.124792E+01            -6.791930E+00             4.572403E+00             1.150187E+01             2.238969E+01             2.517124E+01
                   3.7800            -1.352981E+01            -5.131137E+01            -7.287376E+00             4.576221E+00             1.200773E+01             2.247638E+01             2.548281E+01
                   3.9600            -1.407259E+01            -5.137619E+01            -7.782027E+00             4.580900E+00             1.251363E+01             2.256305E+01             2.580082E+01
                   4.1400            -1.461451E+01            -5.144235E+01            -8.275869E+00             4.586431E+00             1.301955E+01             2.264961E+01             2.612496E+01
                   4.3200            -1.515559E+01            -5.150981E+01            -8.768909E+00             4.592802E+00             1.352550E+01             2.273598E+01             2.645494E+01
                   4.5000            -1.569581E+01            -5.157855E+01            -9.261147E+00             4.599993E+00             1.403144E+01             2.282210E+01             2.679048E+01
                   4.6800            -1.623520E+01            -5.164850E+01            -9.752596E+00             4.607979E+00             1.453739E+01             2.290789E+01             2.713129E+01
                   4.8600            -1.677378E+01            -5.171959E+01            -1.024328E+01             4.616714E+00             1.504330E+01             2.299328E+01             2.747712E+01
                   5.0400            -1.731158E+01            -5.179170E+01            -1.073324E+01             4.626117E+00             1.554917E+01             2.307824E+01             2.782771E+01
                   5.2200            -1.784873E+01            -5.186461E+01            -1.122258E+01             4.636034E+00             1.605491E+01             2.316273E+01             2.818284E+01
                   5.4000            -1.838540E+01            -5.193796E+01            -1.171147E+01             4.646203E+00             1.656045E+01             2.324680E+01             2.854228E+01
                   5.5800            -1.892177E+01            -5.201143E+01            -1.220008E+01             4.656390E+00             1.706569E+01             2.333048E+01             2.890587E+01
                   5.7600            -1.945788E+01            -5.208488E+01            -1.268844E+01             4.666514E+00             1.757061E+01             2.341378E+01             2.927340E+01
                   5.9400            -1.999373E+01            -5.215829E+01            -1.317656E+01             4.676560E+00             1.807519E+01             2.349671E+01             2.964469E+01
                   6.1200            -2.052930E+01            -5.223164E+01            -1.366443E+01             4.686528E+00             1.857941E+01             2.357925E+01             3.001959E+01
                   6.3000            -2.106458E+01            -5.230492E+01            -1.415205E+01             4.696420E+00             1.908328E+01             2.366137E+01             3.039790E+01
                   6.4800            -2.159955E+01            -5.237812E+01            -1.463939E+01             4.706237E+00             1.958678E+01             2.374308E+01             3.077947E+01
                   6.6600            -2.213419E+01            -5.245122E+01            -1.512645E+01             4.715983E+00             2.008990E+01             2.382434E+01             3.116413E+01
                   6.8400            -2.266849E+01            -5.252422E+01            -1.561322E+01             4.725657E+00             2.059264E+01             2.390515E+01             3.155175E+01
                   7.0200            -2.320242E+01            -5.259709E+01            -1.609969E+01             4.735263E+00             2.109498E+01             2.398549E+01             3.194216E+01
                   7.2000            -2.373598E+01            -5.266983E+01            -1.658585E+01             4.744803E+00             2.159693E+01             2.406533E+01             3.233524E+01
                   7.3800            -2.426914E+01            -5.274243E+01            -1.707169E+01             4.754277E+00             2.209847E+01             2.414467E+01             3.273083E+01
                   7.5600            -2.480190E+01            -5.281486E+01            -1.755720E+01             4.763690E+00             2.259959E+01             2.422348E+01             3.312882E+01
                   7.7400            -2.533422E+01            -5.288713E+01            -1.804236E+01             4.773041E+00             2.310029E+01             2.430174E+01             3.352906E+01
                   7.9200            -2.586609E+01            -5.295921E+01            -1.852718E+01             4.782334E+00             2.360056E+01             2.437944E+01             3.393146E+01
                   8.1000            -2.639751E+01            -5.303110E+01            -1.901163E+01             4.791570E+00             2.410040E+01             2.445655E+01             3.433587E+01
                   8.2800            -2.692844E+01            -5.310278E+01            -1.949571E+01             4.800751E+00             2.459979E+01             2.453305E+01             3.474219E+01
                   8.4600            -2.745888E+01            -5.317425E+01            -1.997941E+01             4.809879E+00             2.509872E+01             2.460892E+01             3.515032E+01
                   8.6400            -2.798880E+01            -5.324548E+01            -2.046271E+01             4.818957E+00             2.559720E+01             2.468414E+01             3.556014E+01
                   8.8200            -2.851819E+01            -5.331647E+01            -2.094562E+01             4.827985E+00             2.609522E+01             2.475868E+01             3.597156E+01
                   9.0000            -2.904704E+01            -5.338720E+01            -2.142811E+01             4.836967E+00             2.659277E+01             2.483253E+01             3.638447E+01
                   9.1800            -2.957533E+01            -5.345768E+01            -2.191018E+01             4.845903E+00             2.708983E+01             2.490565E+01             3.679879E+01
                   9.3600            -3.010303E+01            -5.352787E+01            -2.239181E+01             4.854795E+00             2.758642E+01             2.497804E+01             3.721442E+01
                   9.5400            -3.063014E+01            -5.359778E+01            -2.287301E+01             4.863644E+00             2.808251E+01             2.504966E+01             3.763127E+01
                   9.7200            -3.115664E+01            -5.366739E+01            -2.335375E+01             4.872454E+00             2.857811E+01             2.512048E+01             3.804927E+01
                   9.9000            -3.168251E+01            -5.373670E+01            -2.383404E+01             4.881223E+00             2.907320E+01             2.519050E+01             3.846833E+01
                  10.0800            -3.220774E+01            -5.380569E+01            -2.431385E+01             4.889955E+00             2.956778E+01             2.525968E+01             3.888837E+01
                  10.2600            -3.273230E+01            -5.387436E+01            -2.479318E+01             4.898650E+00             3.006186E+01             2.532800E+01             3.930932E+01
                  10.4400            -3.325620E+01            -5.394269E+01            -2.527203E+01             4.907310E+00             3.055541E+01             2.539543E+01             3.973111E+01
                  10.6200            -3.377941E+01            -5.401068E+01            -2.575037E+01             4.915934E+00             3.104843E+01             2.546196E+01             4.015367E+01
                  10.8000            -3.430191E+01            -5.407832E+01            -2.622821E+01             4.924524E+00             3.154093E+01             2.552756E+01             4.057692E+01
                  10.9800            -3.482369E+01            -5.414561E+01            -2.670553E+01             4.933081E+00             3.203289E+01             2.559221E+01             4.100082E+01
                  11.1600            -3.534474E+01            -5.421253E+01            -2.718233E+01             4.941604E+00             3.252431E+01             2.565589E+01             4.142530E+01
                  11.3400            -3.586505E+01            -5.427908E+01            -2.765859E+01             4.950094E+00             3.301518E+01             2.571857E+01             4.185029E+01
                  11.5200            -3.638460E+01            -5.434525E+01            -2.813432E+01             4.958551E+00             3.350549E+01             2.578024E+01             4.227575E+01
                  11.7000            -3.690337E+01            -5.441105E+01            -2.860949E+01             4.966975E+00             3.399525E+01             2.584087E+01             4.270162E+01
                  11.8800            -3.742136E+01            -5.447646E+01            -2.908410E+01             4.975365E+00             3.448445E+01             2.590045E+01             4.312784E+01
                  12.0600            -3.793855E+01            -5.454148E+01            -2.955815E+01             4.983720E+00             3.497308E+01             2.595895E+01             4.355438E+01
                  12.2400            -3.845493E+01            -5.460611E+01            -3.003162E+01             4.992040E+00             3.546114E+01             2.601636E+01             4.398117E+01
                  12.4200            -3.897049E+01            -5.467035E+01            -3.050452E+01             5.000324E+00             3.594862E+01             2.607267E+01             4.440818E+01
                  12.6000            -3.948522E+01            -5.473420E+01            -3.097682E+01             5.008569E+00             3.643551E+01             2.612784E+01             4.483537E+01
                  12.7800            -3.999910E+01            -5.479764E+01            -3.144853E+01             5.016774E+00             3.692182E+01             2.618188E+01             4.526269E+01
                  12.9600            -4.051213E+01            -5.486070E+01            -3.191964E+01             5.024938E+00             3.740753E+01             2.623477E+01             4.569011E+01
                  13.1400            -4.102429E+01            -5.492335E+01            -3.239014E+01             5.033058E+00             3.789264E+01             2.628649E+01             4.611759E+01
                  13.3200            -4.153559E+01            -5.498562E+01            -3.286002E+01             5.041131E+00             3.837715E+01             2.633703E+01             4.654508E+01
                  13.5000            -4.204599E+01            -5.504749E+01            -3.332928E+01             5.049155E+00             3.886105E+01             2.638638E+01             4.697257E+01
                  13.6800            -4.255551E+01            -5.510897E+01            -3.379792E+01             5.057127E+00             3.934433E+01             2.643454E+01             4.740002E+01
                  13.8600            -4.306413E+01            -5.517007E+01            -3.426592E+01             5.065043E+00             3.982700E+01             2.648150E+01             4.782739E+01
                  14.0400            -4.357184E+01            -5.523079E+01            -3.473328E+01             5.072900E+00             4.030903E+01             2.652725E+01             4.825467E+01
                  14.2200            -4.407864E+01            -5.529113E+01            -3.520000E+01             5.080694E+00             4.079044E+01             2.657178E+01             4.868182E+01
                  14.4000            -4.458452E+01            -5.535110E+01            -3.566607E+01             5.088420E+00             4.127120E+01             2.661510E+01             4.910881E+01
                  14.5800            -4.508947E+01            -5.541071E+01            -3.613149E+01             5.096074E+00             4.175132E+01             2.665720E+01             4.953564E+01
                  14.7600            -4.559349E+01            -5.546996E+01            -3.659624E+01             5.103652E+00             4.223079E+01             2.669809E+01             4.996226E+01
                  14.9400            -4.609657E+01            -5.552886E+01            -3.706034E+01             5.111148E+00             4.270961E+01             2.673776E+01             5.038867E+01
                  15.1200            -4.659871E+01            -5.558742E+01            -3.752377E+01             5.118558E+00             4.318776E+01             2.677622E+01             5.081485E+01
                  15.3000            -4.709989E+01            -5.564565E+01            -3.798652E+01             5.125875E+00             4.366524E+01             2.681347E+01             5.124076E+01
                  15.4800            -4.760013E+01            -5.570356E+01            -3.844860E+01             5.133094E+00             4.414205E+01             2.684953E+01             5.166640E+01
                  15.6600            -4.809941E+01            -5.576116E+01            -3.891001E+01             5.140210E+00             4.461817E+01             2.688439E+01             5.209176E+01
                  15.8400            -4.859773E+01            -5.581845E+01            -3.937073E+01             5.147215E+00             4.509360E+01             2.691807E+01             5.251681E+01
                  16.0200            -4.909509E+01            -5.587546E+01            -3.983076E+01             5.154104E+00             4.556833E+01             2.695058E+01             5.294154E+01
                  16.2000            -4.959148E+01            -5.593219E+01            -4.029011E+01             5.160870E+00             4.604236E+01             2.698192E+01             5.336593E+01
                  16.3800            -5.008691E+01            -5.598865E+01            -4.074877E+01             5.167507E+00             4.651567E+01             2.701213E+01             5.378999E+01
                  16.5600            -5.058136E+01            -5.604486E+01            -4.120673E+01             5.174007E+00             4.698827E+01             2.704121E+01             5.421369E+01
                  16.7400            -5.107484E+01            -5.610082E+01            -4.166399E+01             5.180363E+00             4.746013E+01             2.706917E+01             5.463702E+01
                  16.9200            -5.156735E+01            -5.615656E+01            -4.212056E+01             5.186569E+00             4.793126E+01             2.709604E+01             5.505997E+01
                  17.1000            -5.205889E+01            -5.621208E+01            -4.257642E+01             5.192616E+00             4.840164E+01             2.712183E+01             5.548254E+01
                  17.2800            -5.254945E+01            -5.626741E+01            -4.303159E+01             5.198498E+00             4.887126E+01             2.714657E+01             5.590471E+01
                  17.4600            -5.303903E+01            -5.632254E+01            -4.348604E+01             5.204208E+00             4.934012E+01             2.717028E+01             5.632648E+01
