                   Degree              F_vhoc_n[N]              F_vhoc_t[N]                 F_1_n[N]                 F_2_n[N]                  F_cx[N]                  F_cy[N]           F_resultant[N]
                   0.0000            -9.398414E-01            -4.879748E+01             3.913856E+00             5.336062E+00             1.422206E+00             2.001808E+01             2.006854E+01
                   0.1800            -2.467973E+00            -5.040274E+01             2.802588E+00             4.721713E+00             1.926186E+00             2.086224E+01             2.095097E+01
                   0.3600            -3.029161E+00            -5.043748E+01             2.290874E+00             4.705107E+00             2.428361E+00             2.093461E+01             2.107499E+01
                   0.5400            -3.589011E+00            -5.047255E+01             1.780169E+00             4.690023E+00             2.931045E+00             2.100788E+01             2.121137E+01
                   0.7200            -4.147789E+00            -5.050851E+01             1.270341E+00             4.676227E+00             3.434133E+00             2.108221E+01             2.136007E+01
                   0.9000            -4.705559E+00            -5.054568E+01             7.614032E-01             4.663572E+00             3.937461E+00             2.115766E+01             2.152093E+01
                   1.0800            -5.262415E+00            -5.058425E+01             2.533067E-01             4.651975E+00             4.440989E+00             2.123427E+01             2.169370E+01
                   1.2600            -5.818511E+00            -5.062433E+01            -2.540737E-01             4.641384E+00             4.944789E+00             2.131201E+01             2.187814E+01
                   1.4400            -6.373809E+00            -5.066597E+01            -7.606871E-01             4.631766E+00             5.448773E+00             2.139085E+01             2.207391E+01
                   1.6200            -6.928337E+00            -5.070919E+01            -1.266553E+00             4.623101E+00             5.952937E+00             2.147072E+01             2.228069E+01
                   1.8000            -7.482072E+00            -5.075398E+01            -1.771648E+00             4.615374E+00             6.457242E+00             2.155155E+01             2.249812E+01
                   1.9800            -8.035069E+00            -5.080037E+01            -2.276023E+00             4.608577E+00             6.961727E+00             2.163329E+01             2.272587E+01
                   2.1600            -8.587278E+00            -5.084832E+01            -2.779630E+00             4.602702E+00             7.466334E+00             2.171586E+01             2.296355E+01
                   2.3400            -9.138718E+00            -5.089782E+01            -3.282491E+00             4.597743E+00             7.971080E+00             2.179917E+01             2.321082E+01
                   2.5200            -9.689369E+00            -5.094887E+01            -3.784586E+00             4.593695E+00             8.475937E+00             2.188316E+01             2.346730E+01
                   2.7000            -1.023922E+01            -5.100144E+01            -4.285906E+00             4.590553E+00             8.980894E+00             2.196775E+01             2.373265E+01
                   2.8800            -1.078827E+01            -5.105551E+01            -4.786458E+00             4.588315E+00             9.485951E+00             2.205286E+01             2.400649E+01
                   3.0600            -1.133650E+01            -5.111107E+01            -5.286219E+00             4.586975E+00             9.991083E+00             2.213840E+01             2.428848E+01
                   3.2400            -1.188391E+01            -5.116810E+01            -5.785193E+00             4.586530E+00             1.049629E+01             2.222431E+01             2.457828E+01
                   3.4200            -1.243050E+01            -5.122658E+01            -6.283376E+00             4.586977E+00             1.100156E+01             2.231049E+01             2.487554E+01
                   3.6000            -1.297624E+01            -5.128649E+01            -6.780758E+00             4.588309E+00             1.150689E+01             2.239689E+01             2.517994E+01
                   3.7800            -1.352113E+01            -5.134781E+01            -7.277331E+00             4.590523E+00             1.201227E+01             2.248341E+01             2.549114E+01
                   3.9600            -1.406517E+01            -5.141051E+01            -7.773097E+00             4.593613E+00             1.251769E+01             2.256997E+01             2.580884E+01
                   4.1400            -1.460835E+01            -5.147458E+01            -8.268043E+00             4.597572E+00             1.302313E+01             2.265651E+01             2.613272E+01
                   4.3200            -1.515065E+01            -5.153999E+01            -8.762172E+00             4.602393E+00             1.352859E+01             2.274293E+01             2.646250E+01
                   4.5000            -1.569208E+01            -5.160670E+01            -9.255478E+00             4.608063E+00             1.403407E+01             2.282917E+01             2.679787E+01
                   4.6800            -1.623264E+01            -5.167469E+01            -9.747966E+00             4.614569E+00             1.453954E+01             2.291515E+01             2.713858E+01
                   4.8600            -1.677233E+01            -5.174391E+01            -1.023964E+01             4.621890E+00             1.504501E+01             2.300079E+01             2.748433E+01
                   5.0400            -1.731116E+01            -5.181429E+01            -1.073052E+01             4.629991E+00             1.555045E+01             2.308603E+01             2.783489E+01
                   5.2200            -1.784916E+01            -5.188577E+01            -1.122062E+01             4.638819E+00             1.605584E+01             2.317081E+01             2.819001E+01
                   5.4000            -1.838641E+01            -5.195817E+01            -1.171002E+01             4.648273E+00             1.656115E+01             2.325509E+01             2.854945E+01
                   5.5800            -1.892302E+01            -5.203124E+01            -1.219883E+01             4.658160E+00             1.706630E+01             2.333888E+01             2.891300E+01
                   5.7600            -1.945920E+01            -5.210460E+01            -1.268725E+01             4.668211E+00             1.757119E+01             2.342222E+01             2.928049E+01
                   5.9400            -1.999507E+01            -5.217800E+01            -1.317538E+01             4.678245E+00             1.807577E+01             2.350516E+01             2.965174E+01
                   6.1200            -2.053066E+01            -5.225135E+01            -1.366325E+01             4.688211E+00             1.857999E+01             2.358771E+01             3.002659E+01
                   6.3000            -2.106596E+01            -5.232463E+01            -1.415086E+01             4.698102E+00             1.908386E+01             2.366984E+01             3.040486E+01
                   6.4800            -2.160094E+01            -5.239783E+01            -1.463821E+01             4.707919E+00             1.958736E+01             2.375156E+01             3.078638E+01
                   6.6600            -2.213559E+01            -5.247093E+01            -1.512527E+01             4.717664E+00             2.009048E+01             2.383283E+01             3.117100E+01
                   6.8400            -2.266990E+01            -5.254393E+01            -1.561204E+01             4.727338E+00             2.059322E+01             2.391365E+01             3.155857E+01
                   7.0200            -2.320385E+01            -5.261680E+01            -1.609851E+01             4.736944E+00             2.109557E+01             2.399400E+01             3.194894E+01
                   7.2000            -2.373742E+01            -5.268955E+01            -1.658467E+01             4.746483E+00             2.159752E+01             2.407385E+01             3.234197E+01
                   7.3800            -2.427060E+01            -5.276214E+01            -1.707051E+01             4.755957E+00             2.209906E+01             2.415320E+01             3.273752E+01
                   7.5600            -2.480337E+01            -5.283458E+01            -1.755602E+01             4.765369E+00             2.260018E+01             2.423202E+01             3.313547E+01
                   7.7400            -2.533570E+01            -5.290685E+01            -1.804118E+01             4.774720E+00             2.310088E+01             2.431029E+01             3.353567E+01
                   7.9200            -2.586759E+01            -5.297893E+01            -1.852600E+01             4.784012E+00             2.360116E+01             2.438800E+01             3.393802E+01
                   8.1000            -2.639902E+01            -5.305082E+01            -1.901045E+01             4.793248E+00             2.410099E+01             2.446512E+01             3.434239E+01
                   8.2800            -2.692997E+01            -5.312250E+01            -1.949453E+01             4.802429E+00             2.460038E+01             2.454163E+01             3.474867E+01
                   8.4600            -2.746042E+01            -5.319397E+01            -1.997823E+01             4.811557E+00             2.509932E+01             2.461751E+01             3.515676E+01
                   8.6400            -2.799035E+01            -5.326520E+01            -2.046153E+01             4.820634E+00             2.559780E+01             2.469274E+01             3.556654E+01
                   8.8200            -2.851976E+01            -5.333619E+01            -2.094444E+01             4.829663E+00             2.609582E+01             2.476729E+01             3.597792E+01
                   9.0000            -2.904862E+01            -5.340693E+01            -2.142693E+01             4.838644E+00             2.659337E+01             2.484114E+01             3.639079E+01
                   9.1800            -2.957692E+01            -5.347740E+01            -2.190900E+01             4.847580E+00             2.709044E+01             2.491428E+01             3.680507E+01
                   9.3600            -3.010464E+01            -5.354760E+01            -2.239063E+01             4.856472E+00             2.758702E+01             2.498667E+01             3.722066E+01
                   9.5400            -3.063176E+01            -5.361751E+01            -2.287183E+01             4.865321E+00             2.808312E+01             2.505830E+01             3.763748E+01
                   9.7200            -3.115827E+01            -5.368712E+01            -2.335257E+01             4.874131E+00             2.857871E+01             2.512913E+01             3.805544E+01
                   9.9000            -3.168415E+01            -5.375643E+01            -2.383286E+01             4.882901E+00             2.907381E+01             2.519916E+01             3.847446E+01
                  10.0800            -3.220939E+01            -5.382542E+01            -2.431267E+01             4.891633E+00             2.956839E+01             2.526834E+01             3.889446E+01
                  10.2600            -3.273397E+01            -5.389408E+01            -2.479200E+01             4.900328E+00             3.006247E+01             2.533667E+01             3.931538E+01
                  10.4400            -3.325788E+01            -5.396242E+01            -2.527085E+01             4.908988E+00             3.055602E+01             2.540412E+01             3.973713E+01
                  10.6200            -3.378110E+01            -5.403041E+01            -2.574919E+01             4.917612E+00             3.104905E+01             2.547065E+01             4.015965E+01
                  10.8000            -3.430361E+01            -5.409805E+01            -2.622703E+01             4.926203E+00             3.154154E+01             2.553626E+01             4.058287E+01
                  10.9800            -3.482541E+01            -5.416533E+01            -2.670435E+01             4.934760E+00             3.203350E+01             2.560092E+01             4.100674E+01
                  11.1600            -3.534648E+01            -5.423225E+01            -2.718115E+01             4.943284E+00             3.252492E+01             2.566460E+01             4.143118E+01
                  11.3400            -3.586679E+01            -5.429880E+01            -2.765741E+01             4.951774E+00             3.301579E+01             2.572729E+01             4.185614E+01
                  11.5200            -3.638635E+01            -5.436497E+01            -2.813313E+01             4.960232E+00             3.350611E+01             2.578897E+01             4.228156E+01
                  11.7000            -3.690514E+01            -5.443077E+01            -2.860830E+01             4.968656E+00             3.399588E+01             2.584960E+01             4.270740E+01
                  11.8800            -3.742314E+01            -5.449618E+01            -2.908292E+01             4.977047E+00             3.448507E+01             2.590919E+01             4.313359E+01
                  12.0600            -3.794034E+01            -5.456120E+01            -2.955696E+01             4.985403E+00             3.497370E+01             2.596769E+01             4.356009E+01
                  12.2400            -3.845673E+01            -5.462583E+01            -3.003044E+01             4.993724E+00             3.546176E+01             2.602511E+01             4.398685E+01
                  12.4200            -3.897230E+01            -5.469007E+01            -3.050333E+01             5.002008E+00             3.594924E+01             2.608142E+01             4.441383E+01
                  12.6000            -3.948704E+01            -5.475391E+01            -3.097563E+01             5.010255E+00             3.643614E+01             2.613660E+01             4.484099E+01
                  12.7800            -4.000094E+01            -5.481735E+01            -3.144734E+01             5.018461E+00             3.692245E+01             2.619064E+01             4.526828E+01
                  12.9600            -4.051398E+01            -5.488040E+01            -3.191845E+01             5.026626E+00             3.740816E+01             2.624353E+01             4.569566E+01
                  13.1400            -4.102615E+01            -5.494306E+01            -3.238895E+01             5.034747E+00             3.789327E+01             2.629525E+01             4.612310E+01
                  13.3200            -4.153746E+01            -5.500532E+01            -3.285883E+01             5.042822E+00             3.837778E+01             2.634580E+01             4.655057E+01
                  13.5000            -4.204788E+01            -5.506719E+01            -3.332809E+01             5.050848E+00             3.886168E+01             2.639516E+01             4.697802E+01
                  13.6800            -4.255741E+01            -5.512867E+01            -3.379672E+01             5.058821E+00             3.934497E+01             2.644332E+01             4.740544E+01
                  13.8600            -4.306603E+01            -5.518976E+01            -3.426472E+01             5.066738E+00             3.982763E+01             2.649028E+01             4.783278E+01
                  14.0400            -4.357376E+01            -5.525048E+01            -3.473209E+01             5.074597E+00             4.030967E+01             2.653603E+01             4.826003E+01
                  14.2200            -4.408057E+01            -5.531082E+01            -3.519880E+01             5.082392E+00             4.079108E+01             2.658056E+01             4.868715E+01
                  14.4000            -4.458646E+01            -5.537078E+01            -3.566487E+01             5.090120E+00             4.127184E+01             2.662388E+01             4.911411E+01
                  14.5800            -4.509142E+01            -5.543039E+01            -3.613029E+01             5.097776E+00             4.175197E+01             2.666598E+01             4.954091E+01
                  14.7600            -4.559544E+01            -5.548963E+01            -3.659504E+01             5.105356E+00             4.223144E+01             2.670687E+01             4.996750E+01
                  14.9400            -4.609853E+01            -5.554853E+01            -3.705913E+01             5.112854E+00             4.271026E+01             2.674654E+01             5.039388E+01
                  15.1200            -4.660068E+01            -5.560709E+01            -3.752256E+01             5.120266E+00             4.318841E+01             2.678500E+01             5.082002E+01
                  15.3000            -4.710188E+01            -5.566532E+01            -3.798531E+01             5.127585E+00             4.366589E+01             2.682225E+01             5.124591E+01
                  15.4800            -4.760212E+01            -5.572322E+01            -3.844739E+01             5.134806E+00             4.414270E+01             2.685830E+01             5.167152E+01
                  15.6600            -4.810141E+01            -5.578081E+01            -3.890880E+01             5.141924E+00             4.461882E+01             2.689316E+01             5.209685E+01
                  15.8400            -4.859974E+01            -5.583810E+01            -3.936951E+01             5.148932E+00             4.509426E+01             2.692684E+01             5.252187E+01
                  16.0200            -4.909711E+01            -5.589510E+01            -3.982955E+01             5.155823E+00             4.556899E+01             2.695934E+01             5.294657E+01
                  16.2000            -4.959351E+01            -5.595183E+01            -4.028889E+01             5.162591E+00             4.604302E+01             2.699069E+01             5.337094E+01
                  16.3800            -5.008895E+01            -5.600828E+01            -4.074755E+01             5.169230E+00             4.651634E+01             2.702089E+01             5.379496E+01
                  16.5600            -5.058341E+01            -5.606449E+01            -4.120551E+01             5.175733E+00             4.698893E+01             2.704997E+01             5.421863E+01
                  16.7400            -5.107690E+01            -5.612045E+01            -4.166277E+01             5.182092E+00             4.746080E+01             2.707792E+01             5.464194E+01
                  16.9200            -5.156942E+01            -5.617618E+01            -4.211934E+01             5.188300E+00             4.793193E+01             2.710479E+01             5.506486E+01
                  17.1000            -5.206096E+01            -5.623170E+01            -4.257520E+01             5.194350E+00             4.840231E+01             2.713058E+01             5.548740E+01
                  17.2800            -5.255153E+01            -5.628702E+01            -4.303036E+01             5.200235E+00             4.887194E+01             2.715531E+01             5.590955E+01
                  17.4600            -5.304112E+01            -5.634215E+01            -4.348481E+01             5.205947E+00             4.934080E+01             2.717901E+01             5.633128E+01
