                   Degree           dqdtheta_sc[W]           dqdtheta_dc[W]           dqdtheta_hc[W]       dqdtheta_resoil[W]          dqdtheta_oil[W]
                   0.0000             9.089155E-04             1.139631E+01             0.000000E+00             2.440995E+00             3.581532E+03
                   0.1800             4.090351E-02             1.141715E+01             0.000000E+00             2.536247E+00             3.581420E+03
                   0.3600             7.152326E-02             1.144502E+01             0.000000E+00             2.497793E+00             3.581462E+03
                   0.5400             9.914795E-02             1.147038E+01             0.000000E+00             2.471446E+00             3.581491E+03
                   0.7200             1.250703E-01             1.149346E+01             0.000000E+00             2.453831E+00             3.581510E+03
                   0.9000             1.498709E-01             1.151446E+01             0.000000E+00             2.442324E+00             3.581521E+03
                   1.0800             1.738594E-01             1.153351E+01             0.000000E+00             2.434982E+00             3.581528E+03
                   1.2600             1.972189E-01             1.155072E+01             0.000000E+00             2.430443E+00             3.581532E+03
                   1.4400             2.200651E-01             1.156617E+01             0.000000E+00             2.427761E+00             3.581534E+03
                   1.6200             2.424759E-01             1.157990E+01             0.000000E+00             2.426281E+00             3.581534E+03
                   1.8000             2.645067E-01             1.159196E+01             0.000000E+00             2.425560E+00             3.581534E+03
                   1.9800             2.861993E-01             1.160237E+01             0.000000E+00             2.425298E+00             3.581533E+03
                   2.1600             3.075866E-01             1.161117E+01             0.000000E+00             2.425295E+00             3.581533E+03
                   2.3400             3.286955E-01             1.161837E+01             0.000000E+00             2.425415E+00             3.581532E+03
                   2.5200             3.495488E-01             1.162399E+01             0.000000E+00             2.425569E+00             3.581531E+03
                   2.7000             3.701660E-01             1.162805E+01             0.000000E+00             2.425696E+00             3.581530E+03
                   2.8800             3.905643E-01             1.163056E+01             0.000000E+00             2.425757E+00             3.581529E+03
                   3.0600             4.107588E-01             1.163154E+01             0.000000E+00             2.425727E+00             3.581529E+03
                   3.2400             4.307631E-01             1.163103E+01             0.000000E+00             2.425588E+00             3.581529E+03
                   3.4200             4.505892E-01             1.162904E+01             0.000000E+00             2.425331E+00             3.581529E+03
                   3.6000             4.702483E-01             1.162562E+01             0.000000E+00             2.424951E+00             3.581529E+03
                   3.7800             4.897503E-01             1.162086E+01             0.000000E+00             2.424449E+00             3.581530E+03
                   3.9600             5.091043E-01             1.161490E+01             0.000000E+00             2.423837E+00             3.581530E+03
                   4.1400             5.283187E-01             1.160813E+01             0.000000E+00             2.423145E+00             3.581531E+03
                   4.3200             5.474011E-01             1.160111E+01             0.000000E+00             2.422427E+00             3.581532E+03
                   4.5000             5.663587E-01             1.159411E+01             0.000000E+00             2.421708E+00             3.581533E+03
                   4.6800             5.851980E-01             1.158717E+01             0.000000E+00             2.420990E+00             3.581534E+03
                   4.8600             6.039251E-01             1.158028E+01             0.000000E+00             2.420272E+00             3.581535E+03
                   5.0400             6.225455E-01             1.157346E+01             0.000000E+00             2.419554E+00             3.581536E+03
                   5.2200             6.410646E-01             1.156668E+01             0.000000E+00             2.418837E+00             3.581537E+03
                   5.4000             6.594872E-01             1.155997E+01             0.000000E+00             2.418120E+00             3.581538E+03
                   5.5800             6.778180E-01             1.155331E+01             0.000000E+00             2.417403E+00             3.581539E+03
                   5.7600             6.960611E-01             1.154671E+01             0.000000E+00             2.416685E+00             3.581540E+03
                   5.9400             7.142207E-01             1.154017E+01             0.000000E+00             2.415969E+00             3.581541E+03
                   6.1200             7.323007E-01             1.153368E+01             0.000000E+00             2.415252E+00             3.581542E+03
                   6.3000             7.503047E-01             1.152724E+01             0.000000E+00             2.414535E+00             3.581543E+03
                   6.4800             7.682360E-01             1.152086E+01             0.000000E+00             2.413818E+00             3.581544E+03
                   6.6600             7.860981E-01             1.151454E+01             0.000000E+00             2.413102E+00             3.581544E+03
                   6.8400             8.038941E-01             1.150827E+01             0.000000E+00             2.412385E+00             3.581545E+03
                   7.0200             8.216270E-01             1.150205E+01             0.000000E+00             2.411669E+00             3.581546E+03
                   7.2000             8.392997E-01             1.149589E+01             0.000000E+00             2.410953E+00             3.581547E+03
                   7.3800             8.569149E-01             1.148979E+01             0.000000E+00             2.410237E+00             3.581548E+03
                   7.5600             8.744754E-01             1.148373E+01             0.000000E+00             2.409521E+00             3.581549E+03
                   7.7400             8.919836E-01             1.147774E+01             0.000000E+00             2.408805E+00             3.581550E+03
                   7.9200             9.094420E-01             1.147179E+01             0.000000E+00             2.408090E+00             3.581551E+03
                   8.1000             9.268531E-01             1.146590E+01             0.000000E+00             2.407374E+00             3.581552E+03
                   8.2800             9.442191E-01             1.146006E+01             0.000000E+00             2.406659E+00             3.581553E+03
                   8.4600             9.615423E-01             1.145427E+01             0.000000E+00             2.405944E+00             3.581554E+03
                   8.6400             9.788249E-01             1.144853E+01             0.000000E+00             2.405229E+00             3.581555E+03
                   8.8200             9.960689E-01             1.144285E+01             0.000000E+00             2.404514E+00             3.581556E+03
                   9.0000             1.013277E+00             1.143722E+01             0.000000E+00             2.403800E+00             3.581557E+03
                   9.1800             1.030450E+00             1.143164E+01             0.000000E+00             2.403085E+00             3.581558E+03
                   9.3600             1.047591E+00             1.142611E+01             0.000000E+00             2.402371E+00             3.581559E+03
                   9.5400             1.064701E+00             1.142063E+01             0.000000E+00             2.401656E+00             3.581559E+03
                   9.7200             1.081782E+00             1.141520E+01             0.000000E+00             2.400942E+00             3.581560E+03
                   9.9000             1.098836E+00             1.140982E+01             0.000000E+00             2.400227E+00             3.581561E+03
                  10.0800             1.115865E+00             1.140449E+01             0.000000E+00             2.399512E+00             3.581562E+03
                  10.2600             1.132871E+00             1.139921E+01             0.000000E+00             2.398796E+00             3.581563E+03
                  10.4400             1.149854E+00             1.139398E+01             0.000000E+00             2.398080E+00             3.581564E+03
                  10.6200             1.166817E+00             1.138880E+01             0.000000E+00             2.397364E+00             3.581565E+03
                  10.8000             1.183761E+00             1.138367E+01             0.000000E+00             2.396647E+00             3.581566E+03
                  10.9800             1.200689E+00             1.137859E+01             0.000000E+00             2.395929E+00             3.581567E+03
                  11.1600             1.217600E+00             1.137355E+01             0.000000E+00             2.395210E+00             3.581568E+03
                  11.3400             1.234496E+00             1.136857E+01             0.000000E+00             2.394490E+00             3.581569E+03
                  11.5200             1.251380E+00             1.136363E+01             0.000000E+00             2.393768E+00             3.581570E+03
                  11.7000             1.268252E+00             1.135874E+01             0.000000E+00             2.393045E+00             3.581571E+03
                  11.8800             1.285113E+00             1.135389E+01             0.000000E+00             2.392321E+00             3.581572E+03
                  12.0600             1.301965E+00             1.134909E+01             0.000000E+00             2.391594E+00             3.581573E+03
                  12.2400             1.318809E+00             1.134434E+01             0.000000E+00             2.390865E+00             3.581574E+03
                  12.4200             1.335646E+00             1.133964E+01             0.000000E+00             2.390134E+00             3.581575E+03
                  12.6000             1.352477E+00             1.133498E+01             0.000000E+00             2.389400E+00             3.581576E+03
                  12.7800             1.369303E+00             1.133036E+01             0.000000E+00             2.388663E+00             3.581576E+03
                  12.9600             1.386124E+00             1.132579E+01             0.000000E+00             2.387922E+00             3.581577E+03
                  13.1400             1.402943E+00             1.132127E+01             0.000000E+00             2.387178E+00             3.581578E+03
                  13.3200             1.419759E+00             1.131679E+01             0.000000E+00             2.386430E+00             3.581579E+03
                  13.5000             1.436573E+00             1.131235E+01             0.000000E+00             2.385678E+00             3.581580E+03
                  13.6800             1.453386E+00             1.130796E+01             0.000000E+00             2.384920E+00             3.581581E+03
                  13.8600             1.470200E+00             1.130362E+01             0.000000E+00             2.384158E+00             3.581582E+03
                  14.0400             1.487013E+00             1.129931E+01             0.000000E+00             2.383390E+00             3.581583E+03
                  14.2200             1.503827E+00             1.129505E+01             0.000000E+00             2.382616E+00             3.581584E+03
                  14.4000             1.520642E+00             1.129083E+01             0.000000E+00             2.381836E+00             3.581585E+03
                  14.5800             1.537459E+00             1.128666E+01             0.000000E+00             2.381048E+00             3.581586E+03
                  14.7600             1.554278E+00             1.128252E+01             0.000000E+00             2.380254E+00             3.581587E+03
                  14.9400             1.571100E+00             1.127843E+01             0.000000E+00             2.379451E+00             3.581588E+03
                  15.1200             1.587923E+00             1.127438E+01             0.000000E+00             2.378640E+00             3.581589E+03
                  15.3000             1.604749E+00             1.127037E+01             0.000000E+00             2.377820E+00             3.581591E+03
                  15.4800             1.621578E+00             1.126641E+01             0.000000E+00             2.376991E+00             3.581592E+03
                  15.6600             1.638409E+00             1.126248E+01             0.000000E+00             2.376151E+00             3.581593E+03
                  15.8400             1.655243E+00             1.125859E+01             0.000000E+00             2.375301E+00             3.581594E+03
                  16.0200             1.672079E+00             1.125475E+01             0.000000E+00             2.374440E+00             3.581595E+03
                  16.2000             1.688918E+00             1.125094E+01             0.000000E+00             2.373567E+00             3.581596E+03
                  16.3800             1.705759E+00             1.124717E+01             0.000000E+00             2.372681E+00             3.581597E+03
                  16.5600             1.722601E+00             1.124344E+01             0.000000E+00             2.371783E+00             3.581598E+03
                  16.7400             1.739445E+00             1.123975E+01             0.000000E+00             2.370870E+00             3.581599E+03
                  16.9200             1.756290E+00             1.123610E+01             0.000000E+00             2.369944E+00             3.581601E+03
                  17.1000             1.773136E+00             1.123249E+01             0.000000E+00             2.369002E+00             3.581602E+03
                  17.2800             1.789981E+00             1.122892E+01             0.000000E+00             2.368045E+00             3.581603E+03
                  17.4600             1.806827E+00             1.122538E+01             0.000000E+00             2.367072E+00             3.581604E+03
                  17.6400             1.823671E+00             1.122188E+01             0.000000E+00             2.366082E+00             3.581605E+03
                  17.8200             1.840513E+00             1.121841E+01             0.000000E+00             2.365074E+00             3.581607E+03
                  18.0000             1.857354E+00             1.121499E+01             0.000000E+00             2.364048E+00             3.581608E+03
                  18.1800             1.874191E+00             1.121160E+01             0.000000E+00             2.363002E+00             3.581609E+03
                  18.3600             1.891024E+00             1.120824E+01             0.000000E+00             2.361938E+00             3.581611E+03
                  18.5400             1.907853E+00             1.120492E+01             0.000000E+00             2.360853E+00             3.581612E+03
                  18.7200             1.924676E+00             1.120164E+01             0.000000E+00             2.359746E+00             3.581613E+03
                  18.9000             1.941493E+00             1.119839E+01             0.000000E+00             2.358619E+00             3.581615E+03
                  19.0800             1.958303E+00             1.119518E+01             0.000000E+00             2.357469E+00             3.581616E+03
                  19.2600             1.975105E+00             1.119200E+01             0.000000E+00             2.356295E+00             3.581618E+03
                  19.4400             1.991898E+00             1.118885E+01             0.000000E+00             2.355099E+00             3.581619E+03
                  19.6200             2.008682E+00             1.118574E+01             0.000000E+00             2.353877E+00             3.581621E+03
                  19.8000             2.025454E+00             1.118267E+01             0.000000E+00             2.352631E+00             3.581622E+03
                  19.9800             2.042215E+00             1.117962E+01             0.000000E+00             2.351359E+00             3.581624E+03
                  20.1600             2.058963E+00             1.117661E+01             0.000000E+00             2.350061E+00             3.581625E+03
                  20.3400             2.075697E+00             1.117363E+01             0.000000E+00             2.348735E+00             3.581627E+03
                  20.5200             2.092417E+00             1.117068E+01             0.000000E+00             2.347383E+00             3.581629E+03
                  20.7000             2.109121E+00             1.116777E+01             0.000000E+00             2.346001E+00             3.581630E+03
                  20.8800             2.125809E+00             1.116488E+01             0.000000E+00             2.344591E+00             3.581632E+03
                  21.0600             2.142479E+00             1.116203E+01             0.000000E+00             2.343152E+00             3.581634E+03
                  21.2400             2.159130E+00             1.115921E+01             0.000000E+00             2.341682E+00             3.581636E+03
                  21.4200             2.175762E+00             1.115641E+01             0.000000E+00             2.340182E+00             3.581638E+03
                  21.6000             2.192374E+00             1.115365E+01             0.000000E+00             2.338651E+00             3.581639E+03
                  21.7800             2.208964E+00             1.115092E+01             0.000000E+00             2.337088E+00             3.581641E+03
                  21.9600             2.225531E+00             1.114822E+01             0.000000E+00             2.335492E+00             3.581643E+03
                  22.1400             2.242076E+00             1.114555E+01             0.000000E+00             2.333864E+00             3.581645E+03
                  22.3200             2.258596E+00             1.114290E+01             0.000000E+00             2.332202E+00             3.581647E+03
                  22.5000             2.275091E+00             1.114029E+01             0.000000E+00             2.330507E+00             3.581649E+03
                  22.6800             2.291560E+00             1.113770E+01             0.000000E+00             2.328777E+00             3.581651E+03
                  22.8600             2.308002E+00             1.113514E+01             0.000000E+00             2.327012E+00             3.581653E+03
                  23.0400             2.324417E+00             1.113261E+01             0.000000E+00             2.325211E+00             3.581656E+03
                  23.2200             2.340803E+00             1.113010E+01             0.000000E+00             2.323375E+00             3.581658E+03
                  23.4000             2.357160E+00             1.112762E+01             0.000000E+00             2.321503E+00             3.581660E+03
