                   Degree           dqdtheta_sc[W]           dqdtheta_dc[W]           dqdtheta_hc[W]       dqdtheta_resoil[W]          dqdtheta_oil[W]
                   0.0000             1.019546E-03             1.586131E+01             0.000000E+00             1.893070E+00             2.341332E+03
                   0.1800             2.848533E-02             1.588449E+01             0.000000E+00             1.810870E+00             2.341442E+03
                   0.3600             4.898432E-02             1.590999E+01             0.000000E+00             1.788688E+00             2.341470E+03
                   0.5400             6.732190E-02             1.593437E+01             0.000000E+00             1.775245E+00             2.341486E+03
                   0.7200             8.456211E-02             1.595745E+01             0.000000E+00             1.767214E+00             2.341494E+03
                   0.9000             1.011332E-01             1.597910E+01             0.000000E+00             1.762447E+00             2.341498E+03
                   1.0800             1.172324E-01             1.599924E+01             0.000000E+00             1.759619E+00             2.341499E+03
                   1.2600             1.329602E-01             1.601784E+01             0.000000E+00             1.757928E+00             2.341499E+03
                   1.4400             1.483739E-01             1.603488E+01             0.000000E+00             1.756899E+00             2.341499E+03
                   1.6200             1.635105E-01             1.605036E+01             0.000000E+00             1.756251E+00             2.341497E+03
                   1.8000             1.783975E-01             1.606426E+01             0.000000E+00             1.755820E+00             2.341496E+03
                   1.9800             1.930567E-01             1.607661E+01             0.000000E+00             1.755509E+00             2.341495E+03
                   2.1600             2.075070E-01             1.608741E+01             0.000000E+00             1.755263E+00             2.341493E+03
                   2.3400             2.217648E-01             1.609666E+01             0.000000E+00             1.755051E+00             2.341492E+03
                   2.5200             2.358445E-01             1.610439E+01             0.000000E+00             1.754853E+00             2.341491E+03
                   2.7000             2.497591E-01             1.611060E+01             0.000000E+00             1.754660E+00             2.341490E+03
                   2.8800             2.635203E-01             1.611531E+01             0.000000E+00             1.754466E+00             2.341489E+03
                   3.0600             2.771386E-01             1.611852E+01             0.000000E+00             1.754270E+00             2.341488E+03
                   3.2400             2.906232E-01             1.612026E+01             0.000000E+00             1.754069E+00             2.341487E+03
                   3.4200             3.039826E-01             1.612054E+01             0.000000E+00             1.753864E+00             2.341487E+03
                   3.6000             3.172246E-01             1.611938E+01             0.000000E+00             1.753655E+00             2.341487E+03
                   3.7800             3.303561E-01             1.611680E+01             0.000000E+00             1.753443E+00             2.341486E+03
                   3.9600             3.433835E-01             1.611284E+01             0.000000E+00             1.753228E+00             2.341486E+03
                   4.1400             3.563126E-01             1.610753E+01             0.000000E+00             1.753012E+00             2.341486E+03
                   4.3200             3.691488E-01             1.610094E+01             0.000000E+00             1.752795E+00             2.341487E+03
                   4.5000             3.818972E-01             1.609318E+01             0.000000E+00             1.752577E+00             2.341487E+03
                   4.6800             3.945624E-01             1.608447E+01             0.000000E+00             1.752359E+00             2.341487E+03
                   4.8600             4.071489E-01             1.607520E+01             0.000000E+00             1.752139E+00             2.341488E+03
                   5.0400             4.196608E-01             1.606580E+01             0.000000E+00             1.751919E+00             2.341488E+03
                   5.2200             4.321020E-01             1.605644E+01             0.000000E+00             1.751698E+00             2.341489E+03
                   5.4000             4.444763E-01             1.604716E+01             0.000000E+00             1.751476E+00             2.341489E+03
                   5.5800             4.567872E-01             1.603795E+01             0.000000E+00             1.751256E+00             2.341490E+03
                   5.7600             4.690383E-01             1.602882E+01             0.000000E+00             1.751038E+00             2.341490E+03
                   5.9400             4.812327E-01             1.601977E+01             0.000000E+00             1.750823E+00             2.341491E+03
                   6.1200             4.933738E-01             1.601080E+01             0.000000E+00             1.750612E+00             2.341491E+03
                   6.3000             5.054646E-01             1.600190E+01             0.000000E+00             1.750408E+00             2.341492E+03
                   6.4800             5.175082E-01             1.599308E+01             0.000000E+00             1.750209E+00             2.341492E+03
                   6.6600             5.295077E-01             1.598434E+01             0.000000E+00             1.750019E+00             2.341492E+03
                   6.8400             5.414659E-01             1.597567E+01             0.000000E+00             1.749837E+00             2.341493E+03
                   7.0200             5.533857E-01             1.596708E+01             0.000000E+00             1.749666E+00             2.341493E+03
                   7.2000             5.652700E-01             1.595856E+01             0.000000E+00             1.749505E+00             2.341494E+03
                   7.3800             5.771216E-01             1.595012E+01             0.000000E+00             1.749357E+00             2.341494E+03
                   7.5600             5.889433E-01             1.594175E+01             0.000000E+00             1.749222E+00             2.341494E+03
                   7.7400             6.007379E-01             1.593346E+01             0.000000E+00             1.749102E+00             2.341495E+03
                   7.9200             6.125080E-01             1.592524E+01             0.000000E+00             1.748997E+00             2.341495E+03
                   8.1000             6.242564E-01             1.591710E+01             0.000000E+00             1.748909E+00             2.341495E+03
                   8.2800             6.359858E-01             1.590903E+01             0.000000E+00             1.748839E+00             2.341496E+03
                   8.4600             6.476990E-01             1.590104E+01             0.000000E+00             1.748788E+00             2.341496E+03
                   8.6400             6.593985E-01             1.589312E+01             0.000000E+00             1.748757E+00             2.341496E+03
                   8.8200             6.710871E-01             1.588527E+01             0.000000E+00             1.748746E+00             2.341496E+03
                   9.0000             6.827674E-01             1.587749E+01             0.000000E+00             1.748758E+00             2.341496E+03
                   9.1800             6.944421E-01             1.586979E+01             0.000000E+00             1.748793E+00             2.341496E+03
                   9.3600             7.061137E-01             1.586216E+01             0.000000E+00             1.748851E+00             2.341497E+03
                   9.5400             7.177848E-01             1.585460E+01             0.000000E+00             1.748935E+00             2.341497E+03
                   9.7200             7.294581E-01             1.584711E+01             0.000000E+00             1.749044E+00             2.341497E+03
                   9.9000             7.411362E-01             1.583969E+01             0.000000E+00             1.749180E+00             2.341497E+03
                  10.0800             7.528214E-01             1.583235E+01             0.000000E+00             1.749343E+00             2.341496E+03
                  10.2600             7.645164E-01             1.582507E+01             0.000000E+00             1.749534E+00             2.341496E+03
                  10.4400             7.762237E-01             1.581787E+01             0.000000E+00             1.749754E+00             2.341496E+03
                  10.6200             7.879456E-01             1.581073E+01             0.000000E+00             1.750004E+00             2.341496E+03
                  10.8000             7.996846E-01             1.580367E+01             0.000000E+00             1.750284E+00             2.341496E+03
                  10.9800             8.114429E-01             1.579667E+01             0.000000E+00             1.750594E+00             2.341495E+03
                  11.1600             8.232230E-01             1.578974E+01             0.000000E+00             1.750936E+00             2.341495E+03
                  11.3400             8.350271E-01             1.578288E+01             0.000000E+00             1.751309E+00             2.341495E+03
                  11.5200             8.468573E-01             1.577609E+01             0.000000E+00             1.751714E+00             2.341494E+03
                  11.7000             8.587158E-01             1.576937E+01             0.000000E+00             1.752151E+00             2.341494E+03
                  11.8800             8.706046E-01             1.576271E+01             0.000000E+00             1.752621E+00             2.341493E+03
                  12.0600             8.825257E-01             1.575612E+01             0.000000E+00             1.753123E+00             2.341493E+03
                  12.2400             8.944810E-01             1.574960E+01             0.000000E+00             1.753659E+00             2.341492E+03
                  12.4200             9.064723E-01             1.574314E+01             0.000000E+00             1.754226E+00             2.341492E+03
                  12.6000             9.185013E-01             1.573675E+01             0.000000E+00             1.754827E+00             2.341491E+03
                  12.7800             9.305698E-01             1.573042E+01             0.000000E+00             1.755460E+00             2.341490E+03
                  12.9600             9.426791E-01             1.572416E+01             0.000000E+00             1.756125E+00             2.341489E+03
                  13.1400             9.548308E-01             1.571796E+01             0.000000E+00             1.756822E+00             2.341488E+03
                  13.3200             9.670261E-01             1.571182E+01             0.000000E+00             1.757551E+00             2.341488E+03
                  13.5000             9.792663E-01             1.570575E+01             0.000000E+00             1.758310E+00             2.341487E+03
                  13.6800             9.915525E-01             1.569974E+01             0.000000E+00             1.759101E+00             2.341486E+03
                  13.8600             1.003886E+00             1.569379E+01             0.000000E+00             1.759921E+00             2.341485E+03
                  14.0400             1.016266E+00             1.568791E+01             0.000000E+00             1.760771E+00             2.341484E+03
                  14.2200             1.028696E+00             1.568208E+01             0.000000E+00             1.761649E+00             2.341483E+03
                  14.4000             1.041174E+00             1.567632E+01             0.000000E+00             1.762555E+00             2.341481E+03
                  14.5800             1.053702E+00             1.567061E+01             0.000000E+00             1.763488E+00             2.341480E+03
                  14.7600             1.066280E+00             1.566497E+01             0.000000E+00             1.764447E+00             2.341479E+03
                  14.9400             1.078909E+00             1.565938E+01             0.000000E+00             1.765431E+00             2.341478E+03
                  15.1200             1.091587E+00             1.565385E+01             0.000000E+00             1.766439E+00             2.341477E+03
                  15.3000             1.104316E+00             1.564838E+01             0.000000E+00             1.767470E+00             2.341475E+03
                  15.4800             1.117094E+00             1.564297E+01             0.000000E+00             1.768522E+00             2.341474E+03
                  15.6600             1.129923E+00             1.563761E+01             0.000000E+00             1.769595E+00             2.341473E+03
                  15.8400             1.142800E+00             1.563231E+01             0.000000E+00             1.770687E+00             2.341471E+03
                  16.0200             1.155727E+00             1.562707E+01             0.000000E+00             1.771797E+00             2.341470E+03
                  16.2000             1.168702E+00             1.562188E+01             0.000000E+00             1.772923E+00             2.341468E+03
                  16.3800             1.181723E+00             1.561674E+01             0.000000E+00             1.774065E+00             2.341467E+03
                  16.5600             1.194792E+00             1.561166E+01             0.000000E+00             1.775220E+00             2.341465E+03
                  16.7400             1.207905E+00             1.560663E+01             0.000000E+00             1.776388E+00             2.341464E+03
                  16.9200             1.221064E+00             1.560166E+01             0.000000E+00             1.777568E+00             2.341462E+03
                  17.1000             1.234265E+00             1.559673E+01             0.000000E+00             1.778756E+00             2.341461E+03
                  17.2800             1.247507E+00             1.559186E+01             0.000000E+00             1.779954E+00             2.341459E+03
                  17.4600             1.260791E+00             1.558704E+01             0.000000E+00             1.781158E+00             2.341458E+03
                  17.6400             1.274113E+00             1.558227E+01             0.000000E+00             1.782367E+00             2.341456E+03
                  17.8200             1.287472E+00             1.557755E+01             0.000000E+00             1.783580E+00             2.341455E+03
                  18.0000             1.300867E+00             1.557287E+01             0.000000E+00             1.784796E+00             2.341453E+03
                  18.1800             1.314296E+00             1.556825E+01             0.000000E+00             1.786013E+00             2.341452E+03
                  18.3600             1.327757E+00             1.556367E+01             0.000000E+00             1.787230E+00             2.341450E+03
                  18.5400             1.341249E+00             1.555914E+01             0.000000E+00             1.788446E+00             2.341448E+03
                  18.7200             1.354768E+00             1.555466E+01             0.000000E+00             1.789658E+00             2.341447E+03
                  18.9000             1.368315E+00             1.555023E+01             0.000000E+00             1.790867E+00             2.341445E+03
                  19.0800             1.381885E+00             1.554583E+01             0.000000E+00             1.792070E+00             2.341444E+03
                  19.2600             1.395479E+00             1.554149E+01             0.000000E+00             1.793266E+00             2.341442E+03
                  19.4400             1.409092E+00             1.553719E+01             0.000000E+00             1.794454E+00             2.341441E+03
                  19.6200             1.422725E+00             1.553293E+01             0.000000E+00             1.795633E+00             2.341439E+03
                  19.8000             1.436373E+00             1.552871E+01             0.000000E+00             1.796802E+00             2.341438E+03
                  19.9800             1.450036E+00             1.552454E+01             0.000000E+00             1.797960E+00             2.341436E+03
                  20.1600             1.463711E+00             1.552041E+01             0.000000E+00             1.799105E+00             2.341435E+03
                  20.3400             1.477396E+00             1.551632E+01             0.000000E+00             1.800237E+00             2.341433E+03
                  20.5200             1.491090E+00             1.551227E+01             0.000000E+00             1.801355E+00             2.341432E+03
                  20.7000             1.504789E+00             1.550826E+01             0.000000E+00             1.802457E+00             2.341430E+03
                  20.8800             1.518493E+00             1.550429E+01             0.000000E+00             1.803543E+00             2.341429E+03
                  21.0600             1.532198E+00             1.550036E+01             0.000000E+00             1.804613E+00             2.341428E+03
                  21.2400             1.545903E+00             1.549646E+01             0.000000E+00             1.805664E+00             2.341426E+03
                  21.4200             1.559607E+00             1.549261E+01             0.000000E+00             1.806697E+00             2.341425E+03
                  21.6000             1.573307E+00             1.548879E+01             0.000000E+00             1.807711E+00             2.341424E+03
                  21.7800             1.587000E+00             1.548501E+01             0.000000E+00             1.808704E+00             2.341423E+03
                  21.9600             1.600687E+00             1.548126E+01             0.000000E+00             1.809678E+00             2.341421E+03
                  22.1400             1.614363E+00             1.547755E+01             0.000000E+00             1.810630E+00             2.341420E+03
                  22.3200             1.628029E+00             1.547387E+01             0.000000E+00             1.811561E+00             2.341419E+03
                  22.5000             1.641681E+00             1.547023E+01             0.000000E+00             1.812470E+00             2.341418E+03
                  22.6800             1.655319E+00             1.546662E+01             0.000000E+00             1.813356E+00             2.341417E+03
                  22.8600             1.668941E+00             1.546305E+01             0.000000E+00             1.814220E+00             2.341416E+03
                  23.0400             1.682545E+00             1.545951E+01             0.000000E+00             1.815060E+00             2.341415E+03
                  23.2200             1.696130E+00             1.545600E+01             0.000000E+00             1.815877E+00             2.341414E+03
                  23.4000             1.709694E+00             1.545252E+01             0.000000E+00             1.816670E+00             2.341413E+03
