                   Degree              F_vhoc_n[N]              F_vhoc_t[N]                 F_1_n[N]                 F_2_n[N]                  F_cx[N]                  F_cy[N]           F_resultant[N]
                   0.0000            -7.705840E-01            -4.891888E+01             4.061341E+00             5.471625E+00             1.410284E+00             2.004551E+01             2.009506E+01
                   0.1800            -2.321512E+00            -5.017630E+01             2.843732E+00             5.008629E+00             2.171929E+00             2.072845E+01             2.084193E+01
                   0.3600            -3.040199E+00            -5.023145E+01             2.178048E+00             4.995441E+00             2.831500E+00             2.081341E+01             2.100513E+01
                   0.5400            -3.758179E+00            -5.028741E+01             1.512978E+00             4.983240E+00             3.491482E+00             2.089950E+01             2.118914E+01
                   0.7200            -4.475506E+00            -5.034436E+01             8.485091E-01             4.971948E+00             4.151803E+00             2.098673E+01             2.139346E+01
                   0.9000            -5.192092E+00            -5.040239E+01             1.847502E-01             4.961503E+00             4.812288E+00             2.107507E+01             2.161751E+01
                   1.0800            -5.907968E+00            -5.046155E+01            -4.783115E-01             4.951868E+00             5.472908E+00             2.116450E+01             2.186067E+01
                   1.2600            -6.623281E+00            -5.052193E+01            -1.140812E+00             4.943017E+00             6.133769E+00             2.125501E+01             2.212235E+01
                   1.4400            -7.337953E+00            -5.058351E+01            -1.802669E+00             4.934927E+00             6.794762E+00             2.134653E+01             2.240185E+01
                   1.6200            -8.052004E+00            -5.064633E+01            -2.463900E+00             4.927584E+00             7.455885E+00             2.143901E+01             2.269849E+01
                   1.8000            -8.765398E+00            -5.071037E+01            -3.124469E+00             4.920975E+00             8.117088E+00             2.153241E+01             2.301156E+01
                   1.9800            -9.478200E+00            -5.077565E+01            -3.784442E+00             4.915092E+00             8.778422E+00             2.162668E+01             2.334039E+01
                   2.1600            -1.019035E+01            -5.084214E+01            -4.443755E+00             4.909924E+00             9.439814E+00             2.172175E+01             2.368426E+01
                   2.3400            -1.090186E+01            -5.090985E+01            -5.102436E+00             4.905467E+00             1.010128E+01             2.181756E+01             2.404250E+01
                   2.5200            -1.161271E+01            -5.097876E+01            -5.760457E+00             4.901713E+00             1.076279E+01             2.191405E+01             2.441440E+01
                   2.7000            -1.232288E+01            -5.104885E+01            -6.417810E+00             4.898657E+00             1.142432E+01             2.201116E+01             2.479932E+01
                   2.8800            -1.303239E+01            -5.112013E+01            -7.074502E+00             4.896294E+00             1.208588E+01             2.210884E+01             2.519661E+01
                   3.0600            -1.374119E+01            -5.119256E+01            -7.730501E+00             4.894618E+00             1.274742E+01             2.220702E+01             2.560563E+01
                   3.2400            -1.444928E+01            -5.126615E+01            -8.385815E+00             4.893625E+00             1.340894E+01             2.230563E+01             2.602578E+01
                   3.4200            -1.515666E+01            -5.134087E+01            -9.040437E+00             4.893310E+00             1.407045E+01             2.240462E+01             2.645647E+01
                   3.6000            -1.586332E+01            -5.141672E+01            -9.694352E+00             4.893670E+00             1.473191E+01             2.250393E+01             2.689714E+01
                   3.7800            -1.656922E+01            -5.149367E+01            -1.034755E+01             4.894699E+00             1.539331E+01             2.260349E+01             2.734724E+01
                   3.9600            -1.727438E+01            -5.157172E+01            -1.100003E+01             4.896393E+00             1.605464E+01             2.270324E+01             2.780627E+01
                   4.1400            -1.797876E+01            -5.165086E+01            -1.165177E+01             4.898749E+00             1.671589E+01             2.280311E+01             2.827371E+01
                   4.3200            -1.868236E+01            -5.173106E+01            -1.230277E+01             4.901762E+00             1.737705E+01             2.290305E+01             2.874911E+01
                   4.5000            -1.938516E+01            -5.181231E+01            -1.295302E+01             4.905427E+00             1.803810E+01             2.300299E+01             2.923201E+01
                   4.6800            -2.008716E+01            -5.189460E+01            -1.360251E+01             4.909741E+00             1.869903E+01             2.310286E+01             2.972198E+01
                   4.8600            -2.078834E+01            -5.197791E+01            -1.425124E+01             4.914699E+00             1.935983E+01             2.320262E+01             3.021861E+01
                   5.0400            -2.148869E+01            -5.206223E+01            -1.489919E+01             4.920296E+00             2.002050E+01             2.330218E+01             3.072152E+01
                   5.2200            -2.218819E+01            -5.214754E+01            -1.554635E+01             4.926526E+00             2.068101E+01             2.340150E+01             3.123034E+01
                   5.4000            -2.288683E+01            -5.223383E+01            -1.619272E+01             4.933385E+00             2.134136E+01             2.350050E+01             3.174472E+01
                   5.5800            -2.358461E+01            -5.232106E+01            -1.683829E+01             4.940866E+00             2.200153E+01             2.359913E+01             3.226432E+01
                   5.7600            -2.428151E+01            -5.240924E+01            -1.748306E+01             4.948961E+00             2.266152E+01             2.369733E+01             3.278884E+01
                   5.9400            -2.497752E+01            -5.249832E+01            -1.812702E+01             4.957662E+00             2.332131E+01             2.379502E+01             3.331797E+01
                   6.1200            -2.567263E+01            -5.258830E+01            -1.877016E+01             4.966956E+00             2.398090E+01             2.389216E+01             3.385143E+01
                   6.3000            -2.636685E+01            -5.267913E+01            -1.941248E+01             4.976831E+00             2.464027E+01             2.398869E+01             3.438896E+01
                   6.4800            -2.706016E+01            -5.277078E+01            -2.005398E+01             4.987266E+00             2.529940E+01             2.408456E+01             3.493030E+01
                   6.6600            -2.775257E+01            -5.286321E+01            -2.069468E+01             4.998234E+00             2.595829E+01             2.417971E+01             3.547522E+01
                   6.8400            -2.844410E+01            -5.295636E+01            -2.133459E+01             5.009697E+00             2.661690E+01             2.427410E+01             3.602348E+01
                   7.0200            -2.913477E+01            -5.305012E+01            -2.197373E+01             5.021593E+00             2.727521E+01             2.436772E+01             3.657489E+01
                   7.2000            -2.982464E+01            -5.314437E+01            -2.261217E+01             5.033827E+00             2.793318E+01             2.446056E+01             3.712926E+01
                   7.3800            -3.051381E+01            -5.323891E+01            -2.324999E+01             5.046258E+00             2.859076E+01             2.455266E+01             3.768639E+01
                   7.5600            -3.120236E+01            -5.333353E+01            -2.388729E+01             5.058735E+00             2.924787E+01             2.464408E+01             3.824615E+01
                   7.7400            -3.189036E+01            -5.342810E+01            -2.452412E+01             5.071160E+00             2.990447E+01             2.473485E+01             3.880838E+01
                   7.9200            -3.257782E+01            -5.352254E+01            -2.516051E+01             5.083489E+00             3.056053E+01             2.482499E+01             3.937291E+01
                   8.1000            -3.326473E+01            -5.361683E+01            -2.579644E+01             5.095710E+00             3.121605E+01             2.491449E+01             3.993962E+01
                   8.2800            -3.395107E+01            -5.371096E+01            -2.643192E+01             5.107820E+00             3.187100E+01             2.500333E+01             4.050836E+01
                   8.4600            -3.463683E+01            -5.380491E+01            -2.706692E+01             5.119817E+00             3.252538E+01             2.509149E+01             4.107899E+01
                   8.6400            -3.532199E+01            -5.389868E+01            -2.770144E+01             5.131702E+00             3.317917E+01             2.517897E+01             4.165139E+01
                   8.8200            -3.600654E+01            -5.399226E+01            -2.833547E+01             5.143473E+00             3.383237E+01             2.526575E+01             4.222543E+01
                   9.0000            -3.669045E+01            -5.408564E+01            -2.896900E+01             5.155132E+00             3.448496E+01             2.535180E+01             4.280101E+01
                   9.1800            -3.737370E+01            -5.417880E+01            -2.960201E+01             5.166677E+00             3.513694E+01             2.543712E+01             4.337801E+01
                   9.3600            -3.805629E+01            -5.427176E+01            -3.023450E+01             5.178108E+00             3.578829E+01             2.552168E+01             4.395632E+01
                   9.5400            -3.873818E+01            -5.436448E+01            -3.086645E+01             5.189425E+00             3.643900E+01             2.560547E+01             4.453584E+01
                   9.7200            -3.941937E+01            -5.445697E+01            -3.149785E+01             5.200627E+00             3.708907E+01             2.568847E+01             4.511648E+01
                   9.9000            -4.009983E+01            -5.454922E+01            -3.212869E+01             5.211715E+00             3.773848E+01             2.577067E+01             4.569814E+01
                  10.0800            -4.077955E+01            -5.464122E+01            -3.275896E+01             5.222687E+00             3.838723E+01             2.585204E+01             4.628074E+01
                  10.2600            -4.145852E+01            -5.473296E+01            -3.338865E+01             5.233543E+00             3.903530E+01             2.593256E+01             4.686419E+01
                  10.4400            -4.213671E+01            -5.482444E+01            -3.401775E+01             5.244282E+00             3.968268E+01             2.601223E+01             4.744841E+01
                  10.6200            -4.281410E+01            -5.491565E+01            -3.464625E+01             5.254903E+00             4.032937E+01             2.609103E+01             4.803332E+01
                  10.8000            -4.349069E+01            -5.500658E+01            -3.527414E+01             5.265406E+00             4.097536E+01             2.616893E+01             4.861885E+01
                  10.9800            -4.416645E+01            -5.509723E+01            -3.590140E+01             5.275789E+00             4.162063E+01             2.624592E+01             4.920493E+01
                  11.1600            -4.484137E+01            -5.518760E+01            -3.652803E+01             5.286051E+00             4.226518E+01             2.632199E+01             4.979149E+01
                  11.3400            -4.551544E+01            -5.527767E+01            -3.715401E+01             5.296191E+00             4.290899E+01             2.639712E+01             5.037846E+01
                  11.5200            -4.618863E+01            -5.536744E+01            -3.777935E+01             5.306208E+00             4.355206E+01             2.647129E+01             5.096579E+01
                  11.7000            -4.686094E+01            -5.545692E+01            -3.840402E+01             5.316099E+00             4.419439E+01             2.654450E+01             5.155341E+01
                  11.8800            -4.753234E+01            -5.554609E+01            -3.902801E+01             5.325863E+00             4.483595E+01             2.661671E+01             5.214127E+01
                  12.0600            -4.820282E+01            -5.563496E+01            -3.965133E+01             5.335498E+00             4.547674E+01             2.668793E+01             5.272930E+01
                  12.2400            -4.887238E+01            -5.572351E+01            -4.027395E+01             5.345002E+00             4.611675E+01             2.675814E+01             5.331747E+01
                  12.4200            -4.954099E+01            -5.581176E+01            -4.089587E+01             5.354373E+00             4.675598E+01             2.682732E+01             5.390572E+01
                  12.6000            -5.020864E+01            -5.589969E+01            -4.151708E+01             5.363608E+00             4.739441E+01             2.689546E+01             5.449400E+01
                  12.7800            -5.087531E+01            -5.598730E+01            -4.213758E+01             5.372705E+00             4.803203E+01             2.696256E+01             5.508227E+01
                  12.9600            -5.154100E+01            -5.607461E+01            -4.275734E+01             5.381660E+00             4.866884E+01             2.702861E+01             5.567048E+01
                  13.1400            -5.220569E+01            -5.616159E+01            -4.337637E+01             5.390471E+00             4.930483E+01             2.709358E+01             5.625859E+01
                  13.3200            -5.286937E+01            -5.624827E+01            -4.399465E+01             5.399134E+00             4.993998E+01             2.715749E+01             5.684656E+01
                  13.5000            -5.353203E+01            -5.633463E+01            -4.461218E+01             5.407646E+00             5.057429E+01             2.722031E+01             5.743435E+01
                  13.6800            -5.419365E+01            -5.642068E+01            -4.522895E+01             5.416004E+00             5.120775E+01             2.728204E+01             5.802193E+01
                  13.8600            -5.485423E+01            -5.650642E+01            -4.584495E+01             5.424203E+00             5.184035E+01             2.734268E+01             5.860925E+01
                  14.0400            -5.551375E+01            -5.659185E+01            -4.646017E+01             5.432240E+00             5.247208E+01             2.740223E+01             5.919630E+01
                  14.2200            -5.617220E+01            -5.667698E+01            -4.707461E+01             5.440110E+00             5.310293E+01             2.746067E+01             5.978303E+01
                  14.4000            -5.682958E+01            -5.676182E+01            -4.768825E+01             5.447809E+00             5.373290E+01             2.751802E+01             6.036941E+01
                  14.5800            -5.748586E+01            -5.684636E+01            -4.830110E+01             5.455332E+00             5.436196E+01             2.757426E+01             6.095542E+01
                  14.7600            -5.814105E+01            -5.693061E+01            -4.891314E+01             5.462674E+00             5.499012E+01             2.762941E+01             6.154102E+01
                  14.9400            -5.879513E+01            -5.701458E+01            -4.952437E+01             5.469831E+00             5.561736E+01             2.768345E+01             6.212619E+01
                  15.1200            -5.944810E+01            -5.709827E+01            -5.013478E+01             5.476797E+00             5.624367E+01             2.773640E+01             6.271091E+01
                  15.3000            -6.009994E+01            -5.718168E+01            -5.074436E+01             5.483566E+00             5.686905E+01             2.778825E+01             6.329515E+01
                  15.4800            -6.075065E+01            -5.726484E+01            -5.135311E+01             5.490135E+00             5.749348E+01             2.783902E+01             6.387888E+01
                  15.6600            -6.140022E+01            -5.734773E+01            -5.196102E+01             5.496495E+00             5.811695E+01             2.788871E+01             6.446208E+01
                  15.8400            -6.204864E+01            -5.743038E+01            -5.256809E+01             5.502643E+00             5.873946E+01             2.793732E+01             6.504474E+01
                  16.0200            -6.269590E+01            -5.751278E+01            -5.317431E+01             5.508571E+00             5.936099E+01             2.798487E+01             6.562683E+01
                  16.2000            -6.334201E+01            -5.759495E+01            -5.377967E+01             5.514274E+00             5.998153E+01             2.803137E+01             6.620832E+01
                  16.3800            -6.398694E+01            -5.767690E+01            -5.438417E+01             5.519745E+00             6.060107E+01             2.807682E+01             6.678921E+01
                  16.5600            -6.463070E+01            -5.775863E+01            -5.498780E+01             5.524978E+00             6.121961E+01             2.812125E+01             6.736947E+01
                  16.7400            -6.527327E+01            -5.784015E+01            -5.559056E+01             5.529967E+00             6.183712E+01             2.816465E+01             6.794908E+01
                  16.9200            -6.591466E+01            -5.792147E+01            -5.619244E+01             5.534705E+00             6.245361E+01             2.820705E+01             6.852803E+01
                  17.1000            -6.655485E+01            -5.800261E+01            -5.679343E+01             5.539185E+00             6.306905E+01             2.824846E+01             6.910630E+01
                  17.2800            -6.719384E+01            -5.808357E+01            -5.739354E+01             5.543400E+00             6.368344E+01             2.828890E+01             6.968388E+01
                  17.4600            -6.783163E+01            -5.816436E+01            -5.799276E+01             5.547345E+00             6.429677E+01             2.832838E+01             7.026074E+01
