                   Degree              F_vhoc_n[N]              F_vhoc_t[N]                 F_1_n[N]                 F_2_n[N]                  F_cx[N]                  F_cy[N]           F_resultant[N]
                   0.0000            -9.552237E-01            -4.865516E+01             3.903901E+00             5.245906E+00             1.342005E+00             1.996599E+01             2.001104E+01
                   0.1800            -2.502271E+00            -4.991861E+01             2.688381E+00             4.791926E+00             2.110543E+00             2.065606E+01             2.076361E+01
                   0.3600            -3.218190E+00            -4.998375E+01             2.024664E+00             4.785982E+00             2.775345E+00             2.074965E+01             2.093443E+01
                   0.5400            -3.933456E+00            -5.004965E+01             1.361525E+00             4.780976E+00             3.440533E+00             2.084399E+01             2.112603E+01
                   0.7200            -4.648121E+00            -5.011648E+01             6.989535E-01             4.776830E+00             4.106037E+00             2.093910E+01             2.133789E+01
                   0.9000            -5.362094E+00            -5.018434E+01             3.706033E-02             4.773487E+00             4.771685E+00             2.103496E+01             2.156938E+01
                   1.0800            -6.075404E+00            -5.025328E+01            -6.241660E-01             4.770908E+00             5.437447E+00             2.113154E+01             2.181989E+01
                   1.2600            -6.788198E+00            -5.032337E+01            -1.284861E+00             4.769072E+00             6.103433E+00             2.122883E+01             2.208880E+01
                   1.4400            -7.500396E+00            -5.039462E+01            -1.944941E+00             4.767957E+00             6.769534E+00             2.132677E+01             2.237538E+01
                   1.6200            -8.212016E+00            -5.046706E+01            -2.604422E+00             4.767548E+00             7.435751E+00             2.142533E+01             2.267896E+01
                   1.8000            -8.923023E+00            -5.054066E+01            -3.263269E+00             4.767834E+00             8.102035E+00             2.152445E+01             2.299880E+01
                   1.9800            -9.633479E+00            -5.061545E+01            -3.921544E+00             4.768809E+00             8.768441E+00             2.162408E+01             2.333423E+01
                   2.1600            -1.034332E+01            -5.069141E+01            -4.579185E+00             4.770463E+00             9.434893E+00             2.172416E+01             2.368452E+01
                   2.3400            -1.105257E+01            -5.076853E+01            -5.236218E+00             4.772791E+00             1.010141E+01             2.182465E+01             2.404899E+01
                   2.5200            -1.176119E+01            -5.084681E+01            -5.892616E+00             4.775787E+00             1.076797E+01             2.192547E+01             2.442694E+01
                   2.7000            -1.246918E+01            -5.092623E+01            -6.548369E+00             4.779447E+00             1.143454E+01             2.202658E+01             2.481771E+01
                   2.8800            -1.317654E+01            -5.100677E+01            -7.203482E+00             4.783766E+00             1.210113E+01             2.212791E+01             2.522066E+01
                   3.0600            -1.388322E+01            -5.108844E+01            -7.857927E+00             4.788738E+00             1.276771E+01             2.222941E+01             2.563515E+01
                   3.2400            -1.458925E+01            -5.117120E+01            -8.511708E+00             4.794360E+00             1.343427E+01             2.233101E+01             2.606057E+01
                   3.4200            -1.529460E+01            -5.125506E+01            -9.164820E+00             4.800627E+00             1.410080E+01             2.243266E+01             2.649635E+01
                   3.6000            -1.599925E+01            -5.133998E+01            -9.817247E+00             4.807533E+00             1.476729E+01             2.253430E+01             2.694193E+01
                   3.7800            -1.670320E+01            -5.142597E+01            -1.046898E+01             4.815075E+00             1.543373E+01             2.263586E+01             2.739675E+01
                   3.9600            -1.740643E+01            -5.151300E+01            -1.112002E+01             4.823245E+00             1.610010E+01             2.273730E+01             2.786033E+01
                   4.1400            -1.810894E+01            -5.160106E+01            -1.177035E+01             4.832038E+00             1.676639E+01             2.283854E+01             2.833215E+01
                   4.3200            -1.881071E+01            -5.169013E+01            -1.241996E+01             4.841446E+00             1.743259E+01             2.293953E+01             2.881176E+01
                   4.5000            -1.951173E+01            -5.178018E+01            -1.306886E+01             4.851459E+00             1.809868E+01             2.304022E+01             2.929870E+01
                   4.6800            -2.021199E+01            -5.187119E+01            -1.371703E+01             4.862068E+00             1.876466E+01             2.314054E+01             2.979256E+01
                   4.8600            -2.091150E+01            -5.196313E+01            -1.436448E+01             4.873257E+00             1.943050E+01             2.324044E+01             3.029294E+01
                   5.0400            -2.161024E+01            -5.205597E+01            -1.501121E+01             4.885005E+00             2.009620E+01             2.333986E+01             3.079946E+01
                   5.2200            -2.230823E+01            -5.214966E+01            -1.565722E+01             4.897283E+00             2.076173E+01             2.343877E+01             3.131174E+01
                   5.4000            -2.300549E+01            -5.224412E+01            -1.630254E+01             4.910045E+00             2.142708E+01             2.353710E+01             3.182946E+01
                   5.5800            -2.370205E+01            -5.233925E+01            -1.694721E+01             4.923212E+00             2.209220E+01             2.363485E+01             3.235230E+01
                   5.7600            -2.439801E+01            -5.243485E+01            -1.759131E+01             4.936653E+00             2.275704E+01             2.373201E+01             3.287995E+01
                   5.9400            -2.509348E+01            -5.253069E+01            -1.823495E+01             4.950194E+00             2.342154E+01             2.382861E+01             3.341214E+01
                   6.1200            -2.578854E+01            -5.262658E+01            -1.887822E+01             4.963696E+00             2.408563E+01             2.392468E+01             3.394861E+01
                   6.3000            -2.648323E+01            -5.272243E+01            -1.952115E+01             4.977104E+00             2.474929E+01             2.402024E+01             3.448912E+01
                   6.4800            -2.717754E+01            -5.281822E+01            -2.016373E+01             4.990404E+00             2.541250E+01             2.411528E+01             3.503344E+01
                   6.6600            -2.787144E+01            -5.291393E+01            -2.080595E+01             5.003592E+00             2.607524E+01             2.420979E+01             3.558135E+01
                   6.8400            -2.856492E+01            -5.300955E+01            -2.144780E+01             5.016668E+00             2.673751E+01             2.430376E+01             3.613263E+01
                   7.0200            -2.925797E+01            -5.310507E+01            -2.208927E+01             5.029631E+00             2.739930E+01             2.439716E+01             3.668710E+01
                   7.2000            -2.995056E+01            -5.320049E+01            -2.273035E+01             5.042481E+00             2.806058E+01             2.449000E+01             3.724455E+01
                   7.3800            -3.064268E+01            -5.329579E+01            -2.337103E+01             5.055219E+00             2.872135E+01             2.458226E+01             3.780481E+01
                   7.5600            -3.133430E+01            -5.339096E+01            -2.401130E+01             5.067843E+00             2.938161E+01             2.467392E+01             3.836771E+01
                   7.7400            -3.202542E+01            -5.348600E+01            -2.465113E+01             5.080354E+00             3.004133E+01             2.476496E+01             3.893308E+01
                   7.9200            -3.271600E+01            -5.358088E+01            -2.529054E+01             5.092751E+00             3.070051E+01             2.485538E+01             3.950077E+01
                   8.1000            -3.340604E+01            -5.367562E+01            -2.592949E+01             5.105035E+00             3.135913E+01             2.494516E+01             4.007064E+01
                   8.2800            -3.409552E+01            -5.377019E+01            -2.656798E+01             5.117206E+00             3.201719E+01             2.503428E+01             4.064253E+01
                   8.4600            -3.478441E+01            -5.386458E+01            -2.720600E+01             5.129262E+00             3.267467E+01             2.512273E+01             4.121632E+01
                   8.6400            -3.547269E+01            -5.395880E+01            -2.784354E+01             5.141205E+00             3.333156E+01             2.521049E+01             4.179188E+01
                   8.8200            -3.616036E+01            -5.405282E+01            -2.848058E+01             5.153033E+00             3.398785E+01             2.529754E+01             4.236909E+01
                   9.0000            -3.684739E+01            -5.414664E+01            -2.911712E+01             5.164747E+00             3.464354E+01             2.538387E+01             4.294783E+01
                   9.1800            -3.753376E+01            -5.424025E+01            -2.975314E+01             5.176346E+00             3.529861E+01             2.546946E+01             4.352798E+01
                   9.3600            -3.821946E+01            -5.433365E+01            -3.038864E+01             5.187830E+00             3.595305E+01             2.555430E+01             4.410945E+01
                   9.5400            -3.890447E+01            -5.442682E+01            -3.102359E+01             5.199199E+00             3.660685E+01             2.563836E+01             4.469213E+01
                   9.7200            -3.958877E+01            -5.451975E+01            -3.165799E+01             5.210453E+00             3.726000E+01             2.572163E+01             4.527593E+01
                   9.9000            -4.027234E+01            -5.461245E+01            -3.229184E+01             5.221590E+00             3.791249E+01             2.580409E+01             4.586075E+01
                  10.0800            -4.095517E+01            -5.470490E+01            -3.292511E+01             5.232610E+00             3.856431E+01             2.588573E+01             4.644650E+01
                  10.2600            -4.163724E+01            -5.479709E+01            -3.355780E+01             5.243513E+00             3.921545E+01             2.596653E+01             4.703310E+01
                  10.4400            -4.231853E+01            -5.488901E+01            -3.418989E+01             5.254297E+00             3.986591E+01             2.604647E+01             4.762047E+01
                  10.6200            -4.299903E+01            -5.498067E+01            -3.482138E+01             5.264962E+00             4.051567E+01             2.612553E+01             4.820853E+01
                  10.8000            -4.367871E+01            -5.507206E+01            -3.545225E+01             5.275508E+00             4.116471E+01             2.620370E+01             4.879721E+01
                  10.9800            -4.435757E+01            -5.516316E+01            -3.608250E+01             5.285932E+00             4.181304E+01             2.628096E+01             4.938643E+01
                  11.1600            -4.503558E+01            -5.525398E+01            -3.671212E+01             5.296234E+00             4.246065E+01             2.635729E+01             4.997613E+01
                  11.3400            -4.571274E+01            -5.534450E+01            -3.734109E+01             5.306412E+00             4.310751E+01             2.643269E+01             5.056624E+01
                  11.5200            -4.638902E+01            -5.543473E+01            -3.796940E+01             5.316465E+00             4.375364E+01             2.650713E+01             5.115670E+01
                  11.7000            -4.706441E+01            -5.552467E+01            -3.859705E+01             5.326392E+00             4.439900E+01             2.658059E+01             5.174746E+01
                  11.8800            -4.773889E+01            -5.561429E+01            -3.922402E+01             5.336189E+00             4.504361E+01             2.665307E+01             5.233845E+01
                  12.0600            -4.841245E+01            -5.570362E+01            -3.985031E+01             5.345856E+00             4.568744E+01             2.672456E+01             5.292961E+01
                  12.2400            -4.908508E+01            -5.579263E+01            -4.047590E+01             5.355391E+00             4.633048E+01             2.679503E+01             5.352090E+01
                  12.4200            -4.975677E+01            -5.588133E+01            -4.110079E+01             5.364790E+00             4.697274E+01             2.686448E+01             5.411227E+01
                  12.6000            -5.042748E+01            -5.596972E+01            -4.172496E+01             5.374052E+00             4.761419E+01             2.693289E+01             5.470367E+01
                  12.7800            -5.109723E+01            -5.605780E+01            -4.234842E+01             5.383174E+00             4.825484E+01             2.700025E+01             5.529506E+01
                  12.9600            -5.176598E+01            -5.614556E+01            -4.297114E+01             5.392153E+00             4.889467E+01             2.706656E+01             5.588638E+01
                  13.1400            -5.243373E+01            -5.623301E+01            -4.359313E+01             5.400986E+00             4.953367E+01             2.713180E+01             5.647759E+01
                  13.3200            -5.310047E+01            -5.632015E+01            -4.421436E+01             5.409669E+00             5.017183E+01             2.719597E+01             5.706867E+01
                  13.5000            -5.376618E+01            -5.640697E+01            -4.483484E+01             5.418200E+00             5.080914E+01             2.725906E+01             5.765956E+01
                  13.6800            -5.443086E+01            -5.649349E+01            -4.545456E+01             5.426575E+00             5.144560E+01             2.732106E+01             5.825024E+01
                  13.8600            -5.509448E+01            -5.657969E+01            -4.607351E+01             5.434789E+00             5.208119E+01             2.738197E+01             5.884066E+01
                  14.0400            -5.575704E+01            -5.666560E+01            -4.669167E+01             5.442839E+00             5.271591E+01             2.744178E+01             5.943079E+01
                  14.2200            -5.641854E+01            -5.675120E+01            -4.730905E+01             5.450720E+00             5.334975E+01             2.750050E+01             6.002061E+01
                  14.4000            -5.707895E+01            -5.683650E+01            -4.792563E+01             5.458429E+00             5.398269E+01             2.755811E+01             6.061007E+01
                  14.5800            -5.773827E+01            -5.692151E+01            -4.854141E+01             5.465959E+00             5.461473E+01             2.761463E+01             6.119916E+01
                  14.7600            -5.839648E+01            -5.700623E+01            -4.915638E+01             5.473308E+00             5.524586E+01             2.767004E+01             6.178783E+01
                  14.9400            -5.905359E+01            -5.709067E+01            -4.977054E+01             5.480469E+00             5.587607E+01             2.772435E+01             6.237607E+01
                  15.1200            -5.970958E+01            -5.717483E+01            -5.038387E+01             5.487437E+00             5.650534E+01             2.777757E+01             6.296385E+01
                  15.3000            -6.036444E+01            -5.725872E+01            -5.099637E+01             5.494207E+00             5.713367E+01             2.782970E+01             6.355115E+01
                  15.4800            -6.101816E+01            -5.734234E+01            -5.160804E+01             5.500774E+00             5.776105E+01             2.788074E+01             6.413794E+01
                  15.6600            -6.167074E+01            -5.742571E+01            -5.221887E+01             5.507131E+00             5.838747E+01             2.793070E+01             6.472419E+01
                  15.8400            -6.232217E+01            -5.750883E+01            -5.282884E+01             5.513274E+00             5.901292E+01             2.797959E+01             6.530989E+01
                  16.0200            -6.297244E+01            -5.759171E+01            -5.343797E+01             5.519195E+00             5.963738E+01             2.802741E+01             6.589502E+01
                  16.2000            -6.362154E+01            -5.767435E+01            -5.404623E+01             5.524889E+00             6.026085E+01             2.807418E+01             6.647955E+01
                  16.3800            -6.426946E+01            -5.775677E+01            -5.465363E+01             5.530350E+00             6.088332E+01             2.811991E+01             6.706346E+01
                  16.5600            -6.491621E+01            -5.783898E+01            -5.526016E+01             5.535570E+00             6.150477E+01             2.816461E+01             6.764674E+01
                  16.7400            -6.556177E+01            -5.792098E+01            -5.586581E+01             5.540545E+00             6.212520E+01             2.820829E+01             6.822938E+01
                  16.9200            -6.620614E+01            -5.800278E+01            -5.647058E+01             5.545266E+00             6.274459E+01             2.825097E+01             6.881134E+01
                  17.1000            -6.684930E+01            -5.808440E+01            -5.707446E+01             5.549728E+00             6.336293E+01             2.829265E+01             6.939262E+01
                  17.2800            -6.749127E+01            -5.816583E+01            -5.767745E+01             5.553924E+00             6.398022E+01             2.833337E+01             6.997320E+01
                  17.4600            -6.813202E+01            -5.824710E+01            -5.827954E+01             5.557847E+00             6.459644E+01             2.837313E+01             7.055306E+01
