                   Degree           dqdtheta_sc[W]           dqdtheta_dc[W]           dqdtheta_hc[W]       dqdtheta_resoil[W]          dqdtheta_oil[W]
                   0.0000             1.191476E-03             1.686051E+01             0.000000E+00             2.662073E+00             2.982446E+02
                   0.1800             3.075938E-02             1.688596E+01             0.000000E+00             2.588806E+00             2.983205E+02
                   0.3600             5.345535E-02             1.691330E+01             0.000000E+00             2.571025E+00             2.983371E+02
                   0.5400             7.383394E-02             1.693952E+01             0.000000E+00             2.558875E+00             2.983477E+02
                   0.7200             9.292097E-02             1.696451E+01             0.000000E+00             2.550628E+00             2.983542E+02
                   0.9000             1.111781E-01             1.698824E+01             0.000000E+00             2.545050E+00             2.983580E+02
                   1.0800             1.288484E-01             1.701066E+01             0.000000E+00             2.541279E+00             2.983599E+02
                   1.2600             1.460712E-01             1.703175E+01             0.000000E+00             2.538724E+00             2.983606E+02
                   1.4400             1.629314E-01             1.705150E+01             0.000000E+00             2.536980E+00             2.983605E+02
                   1.6200             1.794843E-01             1.706989E+01             0.000000E+00             2.535775E+00             2.983599E+02
                   1.8000             1.957679E-01             1.708694E+01             0.000000E+00             2.534927E+00             2.983591E+02
                   1.9800             2.118103E-01             1.710265E+01             0.000000E+00             2.534311E+00             2.983581E+02
                   2.1600             2.276332E-01             1.711701E+01             0.000000E+00             2.533846E+00             2.983570E+02
                   2.3400             2.432544E-01             1.713004E+01             0.000000E+00             2.533477E+00             2.983559E+02
                   2.5200             2.586890E-01             1.714174E+01             0.000000E+00             2.533168E+00             2.983548E+02
                   2.7000             2.739501E-01             1.715213E+01             0.000000E+00             2.532894E+00             2.983538E+02
                   2.8800             2.890493E-01             1.716120E+01             0.000000E+00             2.532639E+00             2.983529E+02
                   3.0600             3.039970E-01             1.716898E+01             0.000000E+00             2.532395E+00             2.983520E+02
                   3.2400             3.188025E-01             1.717547E+01             0.000000E+00             2.532153E+00             2.983512E+02
                   3.4200             3.334744E-01             1.718068E+01             0.000000E+00             2.531910E+00             2.983506E+02
                   3.6000             3.480206E-01             1.718462E+01             0.000000E+00             2.531664E+00             2.983500E+02
                   3.7800             3.624482E-01             1.718731E+01             0.000000E+00             2.531414E+00             2.983495E+02
                   3.9600             3.767637E-01             1.718875E+01             0.000000E+00             2.531159E+00             2.983491E+02
                   4.1400             3.909734E-01             1.718895E+01             0.000000E+00             2.530899E+00             2.983488E+02
                   4.3200             4.050828E-01             1.718795E+01             0.000000E+00             2.530634E+00             2.983486E+02
                   4.5000             4.190972E-01             1.718574E+01             0.000000E+00             2.530365E+00             2.983484E+02
                   4.6800             4.330215E-01             1.718235E+01             0.000000E+00             2.530092E+00             2.983484E+02
                   4.8600             4.468604E-01             1.717782E+01             0.000000E+00             2.529817E+00             2.983484E+02
                   5.0400             4.606182E-01             1.717217E+01             0.000000E+00             2.529540E+00             2.983486E+02
                   5.2200             4.742990E-01             1.716547E+01             0.000000E+00             2.529261E+00             2.983488E+02
                   5.4000             4.879067E-01             1.715780E+01             0.000000E+00             2.528983E+00             2.983491E+02
                   5.5800             5.014449E-01             1.714929E+01             0.000000E+00             2.528704E+00             2.983494E+02
                   5.7600             5.149173E-01             1.714017E+01             0.000000E+00             2.528428E+00             2.983498E+02
                   5.9400             5.283272E-01             1.713077E+01             0.000000E+00             2.528154E+00             2.983502E+02
                   6.1200             5.416779E-01             1.712131E+01             0.000000E+00             2.527884E+00             2.983507E+02
                   6.3000             5.549725E-01             1.711190E+01             0.000000E+00             2.527619E+00             2.983511E+02
                   6.4800             5.682141E-01             1.710257E+01             0.000000E+00             2.527359E+00             2.983515E+02
                   6.6600             5.814057E-01             1.709332E+01             0.000000E+00             2.527107E+00             2.983519E+02
                   6.8400             5.945500E-01             1.708414E+01             0.000000E+00             2.526862E+00             2.983523E+02
                   7.0200             6.076501E-01             1.707505E+01             0.000000E+00             2.526626E+00             2.983527E+02
                   7.2000             6.207085E-01             1.706603E+01             0.000000E+00             2.526399E+00             2.983530E+02
                   7.3800             6.337280E-01             1.705710E+01             0.000000E+00             2.526183E+00             2.983534E+02
                   7.5600             6.467112E-01             1.704824E+01             0.000000E+00             2.525979E+00             2.983538E+02
                   7.7400             6.596608E-01             1.703946E+01             0.000000E+00             2.525787E+00             2.983541E+02
                   7.9200             6.725794E-01             1.703076E+01             0.000000E+00             2.525609E+00             2.983544E+02
                   8.1000             6.854694E-01             1.702214E+01             0.000000E+00             2.525445E+00             2.983547E+02
                   8.2800             6.983333E-01             1.701360E+01             0.000000E+00             2.525296E+00             2.983550E+02
                   8.4600             7.111738E-01             1.700513E+01             0.000000E+00             2.525164E+00             2.983553E+02
                   8.6400             7.239931E-01             1.699674E+01             0.000000E+00             2.525049E+00             2.983555E+02
                   8.8200             7.367937E-01             1.698843E+01             0.000000E+00             2.524953E+00             2.983557E+02
                   9.0000             7.495781E-01             1.698019E+01             0.000000E+00             2.524875E+00             2.983560E+02
                   9.1800             7.623485E-01             1.697203E+01             0.000000E+00             2.524817E+00             2.983561E+02
                   9.3600             7.751074E-01             1.696395E+01             0.000000E+00             2.524780E+00             2.983563E+02
                   9.5400             7.878570E-01             1.695594E+01             0.000000E+00             2.524764E+00             2.983564E+02
                   9.7200             8.005996E-01             1.694800E+01             0.000000E+00             2.524770E+00             2.983566E+02
                   9.9000             8.133376E-01             1.694014E+01             0.000000E+00             2.524799E+00             2.983566E+02
                  10.0800             8.260731E-01             1.693236E+01             0.000000E+00             2.524852E+00             2.983567E+02
                  10.2600             8.388083E-01             1.692465E+01             0.000000E+00             2.524930E+00             2.983568E+02
                  10.4400             8.515455E-01             1.691701E+01             0.000000E+00             2.525032E+00             2.983568E+02
                  10.6200             8.642866E-01             1.690944E+01             0.000000E+00             2.525159E+00             2.983567E+02
                  10.8000             8.770339E-01             1.690195E+01             0.000000E+00             2.525313E+00             2.983567E+02
                  10.9800             8.897894E-01             1.689453E+01             0.000000E+00             2.525493E+00             2.983566E+02
                  11.1600             9.025550E-01             1.688718E+01             0.000000E+00             2.525700E+00             2.983565E+02
                  11.3400             9.153327E-01             1.687990E+01             0.000000E+00             2.525935E+00             2.983564E+02
                  11.5200             9.281244E-01             1.687270E+01             0.000000E+00             2.526197E+00             2.983562E+02
                  11.7000             9.409319E-01             1.686556E+01             0.000000E+00             2.526487E+00             2.983560E+02
                  11.8800             9.537570E-01             1.685849E+01             0.000000E+00             2.526805E+00             2.983558E+02
                  12.0600             9.666015E-01             1.685150E+01             0.000000E+00             2.527152E+00             2.983555E+02
                  12.2400             9.794669E-01             1.684457E+01             0.000000E+00             2.527526E+00             2.983552E+02
                  12.4200             9.923549E-01             1.683771E+01             0.000000E+00             2.527930E+00             2.983549E+02
                  12.6000             1.005267E+00             1.683092E+01             0.000000E+00             2.528361E+00             2.983546E+02
                  12.7800             1.018204E+00             1.682420E+01             0.000000E+00             2.528821E+00             2.983542E+02
                  12.9600             1.031168E+00             1.681755E+01             0.000000E+00             2.529309E+00             2.983538E+02
                  13.1400             1.044161E+00             1.681096E+01             0.000000E+00             2.529825E+00             2.983533E+02
                  13.3200             1.057182E+00             1.680444E+01             0.000000E+00             2.530368E+00             2.983529E+02
                  13.5000             1.070233E+00             1.679798E+01             0.000000E+00             2.530939E+00             2.983524E+02
                  13.6800             1.083316E+00             1.679159E+01             0.000000E+00             2.531536E+00             2.983518E+02
                  13.8600             1.096431E+00             1.678527E+01             0.000000E+00             2.532159E+00             2.983513E+02
                  14.0400             1.109579E+00             1.677901E+01             0.000000E+00             2.532808E+00             2.983507E+02
                  14.2200             1.122760E+00             1.677281E+01             0.000000E+00             2.533483E+00             2.983501E+02
                  14.4000             1.135975E+00             1.676667E+01             0.000000E+00             2.534181E+00             2.983494E+02
                  14.5800             1.149224E+00             1.676060E+01             0.000000E+00             2.534904E+00             2.983488E+02
                  14.7600             1.162509E+00             1.675459E+01             0.000000E+00             2.535649E+00             2.983481E+02
                  14.9400             1.175828E+00             1.674865E+01             0.000000E+00             2.536416E+00             2.983474E+02
                  15.1200             1.189183E+00             1.674276E+01             0.000000E+00             2.537204E+00             2.983466E+02
                  15.3000             1.202573E+00             1.673694E+01             0.000000E+00             2.538012E+00             2.983459E+02
                  15.4800             1.215998E+00             1.673117E+01             0.000000E+00             2.538839E+00             2.983451E+02
                  15.6600             1.229458E+00             1.672546E+01             0.000000E+00             2.539685E+00             2.983443E+02
                  15.8400             1.242953E+00             1.671982E+01             0.000000E+00             2.540547E+00             2.983434E+02
                  16.0200             1.256481E+00             1.671423E+01             0.000000E+00             2.541425E+00             2.983426E+02
                  16.2000             1.270044E+00             1.670869E+01             0.000000E+00             2.542318E+00             2.983418E+02
                  16.3800             1.283640E+00             1.670322E+01             0.000000E+00             2.543225E+00             2.983409E+02
                  16.5600             1.297268E+00             1.669780E+01             0.000000E+00             2.544143E+00             2.983400E+02
                  16.7400             1.310928E+00             1.669244E+01             0.000000E+00             2.545073E+00             2.983391E+02
                  16.9200             1.324619E+00             1.668713E+01             0.000000E+00             2.546013E+00             2.983382E+02
                  17.1000             1.338339E+00             1.668188E+01             0.000000E+00             2.546961E+00             2.983373E+02
                  17.2800             1.352088E+00             1.667668E+01             0.000000E+00             2.547916E+00             2.983364E+02
                  17.4600             1.365865E+00             1.667154E+01             0.000000E+00             2.548877E+00             2.983354E+02
                  17.6400             1.379668E+00             1.666645E+01             0.000000E+00             2.549843E+00             2.983345E+02
                  17.8200             1.393496E+00             1.666141E+01             0.000000E+00             2.550812E+00             2.983335E+02
                  18.0000             1.407349E+00             1.665642E+01             0.000000E+00             2.551783E+00             2.983326E+02
                  18.1800             1.421223E+00             1.665148E+01             0.000000E+00             2.552755E+00             2.983317E+02
                  18.3600             1.435118E+00             1.664659E+01             0.000000E+00             2.553726E+00             2.983307E+02
                  18.5400             1.449033E+00             1.664176E+01             0.000000E+00             2.554695E+00             2.983298E+02
                  18.7200             1.462966E+00             1.663697E+01             0.000000E+00             2.555662E+00             2.983288E+02
                  18.9000             1.476915E+00             1.663223E+01             0.000000E+00             2.556624E+00             2.983279E+02
                  19.0800             1.490878E+00             1.662754E+01             0.000000E+00             2.557581E+00             2.983270E+02
                  19.2600             1.504855E+00             1.662290E+01             0.000000E+00             2.558531E+00             2.983261E+02
                  19.4400             1.518842E+00             1.661830E+01             0.000000E+00             2.559473E+00             2.983251E+02
                  19.6200             1.532839E+00             1.661375E+01             0.000000E+00             2.560407E+00             2.983242E+02
                  19.8000             1.546844E+00             1.660925E+01             0.000000E+00             2.561330E+00             2.983233E+02
                  19.9800             1.560855E+00             1.660479E+01             0.000000E+00             2.562242E+00             2.983225E+02
                  20.1600             1.574871E+00             1.660037E+01             0.000000E+00             2.563142E+00             2.983216E+02
                  20.3400             1.588889E+00             1.659600E+01             0.000000E+00             2.564029E+00             2.983207E+02
                  20.5200             1.602908E+00             1.659167E+01             0.000000E+00             2.564902E+00             2.983199E+02
                  20.7000             1.616925E+00             1.658738E+01             0.000000E+00             2.565761E+00             2.983191E+02
                  20.8800             1.630941E+00             1.658313E+01             0.000000E+00             2.566603E+00             2.983183E+02
                  21.0600             1.644951E+00             1.657893E+01             0.000000E+00             2.567428E+00             2.983175E+02
                  21.2400             1.658956E+00             1.657476E+01             0.000000E+00             2.568237E+00             2.983167E+02
                  21.4200             1.672953E+00             1.657064E+01             0.000000E+00             2.569027E+00             2.983160E+02
                  21.6000             1.686941E+00             1.656655E+01             0.000000E+00             2.569798E+00             2.983152E+02
                  21.7800             1.700917E+00             1.656251E+01             0.000000E+00             2.570549E+00             2.983145E+02
                  21.9600             1.714881E+00             1.655850E+01             0.000000E+00             2.571281E+00             2.983138E+02
                  22.1400             1.728831E+00             1.655453E+01             0.000000E+00             2.571991E+00             2.983132E+02
                  22.3200             1.742765E+00             1.655059E+01             0.000000E+00             2.572681E+00             2.983125E+02
                  22.5000             1.756682E+00             1.654670E+01             0.000000E+00             2.573348E+00             2.983119E+02
                  22.6800             1.770580E+00             1.654283E+01             0.000000E+00             2.573993E+00             2.983113E+02
                  22.8600             1.784458E+00             1.653901E+01             0.000000E+00             2.574616E+00             2.983107E+02
                  23.0400             1.798315E+00             1.653521E+01             0.000000E+00             2.575216E+00             2.983102E+02
                  23.2200             1.812149E+00             1.653146E+01             0.000000E+00             2.575792E+00             2.983096E+02
                  23.4000             1.825959E+00             1.652773E+01             0.000000E+00             2.576344E+00             2.983091E+02
