                   Degree          h_min[micron-m]               p_max[MPa]           Q_martin[cc/s]                    Eccen        Att.Angle[degree]
                   0.0000             1.824998E+01             3.534583E-02             2.192325E-01             5.000004E-01             5.000936E-01
                   0.1800             1.825565E+01             2.925604E-02             3.308470E-01             4.998453E-01             2.573951E+00
                   0.3600             1.825667E+01             2.814742E-02             3.395341E-01             4.998172E-01             2.746537E+00
                   0.5400             1.825768E+01             2.717230E-02             3.460192E-01             4.997896E-01             2.920006E+00
                   0.7200             1.825863E+01             2.657591E-02             3.499050E-01             4.997636E-01             3.090885E+00
                   0.9000             1.825950E+01             2.713705E-02             3.511016E-01             4.997399E-01             3.259727E+00
                   1.0800             1.826026E+01             2.849505E-02             3.496710E-01             4.997189E-01             3.425251E+00
                   1.2600             1.826091E+01             3.010053E-02             3.458675E-01             4.997010E-01             3.586450E+00
                   1.4400             1.826145E+01             3.181513E-02             3.400584E-01             4.996862E-01             3.742959E+00
                   1.6200             1.826188E+01             3.357170E-02             3.326848E-01             4.996744E-01             3.894377E+00
                   1.8000             1.826221E+01             3.532945E-02             3.241949E-01             4.996654E-01             4.040628E+00
                   1.9800             1.826246E+01             3.705390E-02             3.150724E-01             4.996587E-01             4.181032E+00
                   2.1600             1.826262E+01             3.872406E-02             3.057052E-01             4.996542E-01             4.315682E+00
                   2.3400             1.826273E+01             4.032031E-02             2.964500E-01             4.996512E-01             4.444287E+00
                   2.5200             1.826279E+01             4.183082E-02             2.875587E-01             4.996495E-01             4.566971E+00
                   2.7000             1.826282E+01             4.324645E-02             2.792197E-01             4.996487E-01             4.683774E+00
                   2.8800             1.826283E+01             4.456145E-02             2.715607E-01             4.996485E-01             4.794676E+00
                   3.0600             1.826282E+01             4.577492E-02             2.646311E-01             4.996487E-01             4.899951E+00
                   3.2400             1.826281E+01             4.688851E-02             2.584563E-01             4.996491E-01             4.999628E+00
                   3.4200             1.826279E+01             4.790776E-02             2.530178E-01             4.996496E-01             5.093881E+00
                   3.6000             1.826278E+01             4.884042E-02             2.482721E-01             4.996500E-01             5.182939E+00
                   3.7800             1.826277E+01             4.969749E-02             2.441623E-01             4.996502E-01             5.267046E+00
                   3.9600             1.826277E+01             5.049059E-02             2.406315E-01             4.996502E-01             5.346337E+00
                   4.1400             1.826277E+01             5.123258E-02             2.376138E-01             4.996501E-01             5.421079E+00
                   4.3200             1.826279E+01             5.193659E-02             2.350492E-01             4.996496E-01             5.491474E+00
                   4.5000             1.826282E+01             5.261511E-02             2.328805E-01             4.996489E-01             5.557740E+00
                   4.6800             1.826285E+01             5.327962E-02             2.310564E-01             4.996479E-01             5.620075E+00
                   4.8600             1.826290E+01             5.394046E-02             2.295315E-01             4.996467E-01             5.678667E+00
                   5.0400             1.826295E+01             5.460588E-02             2.282653E-01             4.996452E-01             5.733710E+00
                   5.2200             1.826301E+01             5.528270E-02             2.272227E-01             4.996435E-01             5.785391E+00
                   5.4000             1.826308E+01             5.597667E-02             2.263742E-01             4.996416E-01             5.833858E+00
                   5.5800             1.826316E+01             5.669125E-02             2.256937E-01             4.996394E-01             5.879284E+00
                   5.7600             1.826325E+01             5.742906E-02             2.251600E-01             4.996370E-01             5.921777E+00
                   5.9400             1.826335E+01             5.819136E-02             2.247538E-01             4.996344E-01             5.961480E+00
                   6.1200             1.826345E+01             5.897830E-02             2.244590E-01             4.996316E-01             5.998499E+00
                   6.3000             1.826356E+01             5.979004E-02             2.242613E-01             4.996285E-01             6.032955E+00
                   6.4800             1.826367E+01             6.062539E-02             2.241482E-01             4.996254E-01             6.064963E+00
                   6.6600             1.826380E+01             6.148285E-02             2.241091E-01             4.996220E-01             6.094599E+00
                   6.8400             1.826393E+01             6.236066E-02             2.241342E-01             4.996185E-01             6.121970E+00
                   7.0200             1.826406E+01             6.325775E-02             2.242151E-01             4.996147E-01             6.147141E+00
                   7.2000             1.826420E+01             6.417158E-02             2.243440E-01             4.996109E-01             6.170191E+00
                   7.3800             1.826435E+01             6.510050E-02             2.245141E-01             4.996068E-01             6.191177E+00
                   7.5600             1.826450E+01             6.604257E-02             2.247190E-01             4.996026E-01             6.210157E+00
                   7.7400             1.826466E+01             6.699647E-02             2.249532E-01             4.995983E-01             6.227189E+00
                   7.9200             1.826483E+01             6.795993E-02             2.252114E-01             4.995938E-01             6.242306E+00
                   8.1000             1.826500E+01             6.893195E-02             2.254889E-01             4.995891E-01             6.255557E+00
                   8.2800             1.826517E+01             6.991090E-02             2.257817E-01             4.995843E-01             6.266971E+00
                   8.4600             1.826536E+01             7.089588E-02             2.260859E-01             4.995793E-01             6.276581E+00
                   8.6400             1.826554E+01             7.188529E-02             2.263983E-01             4.995741E-01             1.224563E-03
                   8.8200             1.826574E+01             7.287849E-02             2.267162E-01             4.995688E-01             7.294572E-03
                   9.0000             1.826594E+01             7.387453E-02             2.270374E-01             4.995633E-01             1.162321E-02
                   9.1800             1.826614E+01             7.487292E-02             2.273601E-01             4.995577E-01             1.422676E-02
                   9.3600             1.826636E+01             7.587292E-02             2.276833E-01             4.995519E-01             1.511801E-02
                   9.5400             1.826658E+01             7.687492E-02             2.280065E-01             4.995459E-01             1.430846E-02
                   9.7200             1.826680E+01             7.787818E-02             2.283298E-01             4.995397E-01             1.180584E-02
                   9.9000             1.826703E+01             7.888299E-02             2.286541E-01             4.995333E-01             7.617051E-03
                  10.0800             1.826727E+01             7.988937E-02             2.289810E-01             4.995268E-01             1.749187E-03
                  10.2600             1.826752E+01             8.089865E-02             2.293130E-01             4.995200E-01             6.277389E+00
                  10.4400             1.826777E+01             8.191073E-02             2.296532E-01             4.995130E-01             6.268175E+00
                  10.6200             1.826804E+01             8.292673E-02             2.300060E-01             4.995059E-01             6.257293E+00
                  10.8000             1.826831E+01             8.394783E-02             2.303763E-01             4.994985E-01             6.244747E+00
                  10.9800             1.826858E+01             8.497556E-02             2.307703E-01             4.994908E-01             6.230541E+00
                  11.1600             1.826887E+01             8.601147E-02             2.311952E-01             4.994830E-01             6.214678E+00
                  11.3400             1.826917E+01             8.705752E-02             2.316594E-01             4.994749E-01             6.197163E+00
                  11.5200             1.826947E+01             8.811542E-02             2.321723E-01             4.994665E-01             6.178001E+00
                  11.7000             1.826979E+01             8.918762E-02             2.327447E-01             4.994579E-01             6.157197E+00
                  11.8800             1.827011E+01             9.027675E-02             2.333886E-01             4.994490E-01             6.134758E+00
                  12.0600             1.827045E+01             9.138455E-02             2.341175E-01             4.994398E-01             6.110694E+00
                  12.2400             1.827079E+01             9.251365E-02             2.349463E-01             4.994303E-01             6.085012E+00
                  12.4200             1.827115E+01             9.366642E-02             2.358915E-01             4.994205E-01             6.057724E+00
                  12.6000             1.827152E+01             9.484510E-02             2.369712E-01             4.994104E-01             6.028842E+00
                  12.7800             1.827190E+01             9.605068E-02             2.382052E-01             4.994000E-01             5.998381E+00
                  12.9600             1.827229E+01             9.728558E-02             2.396150E-01             4.993892E-01             5.966357E+00
                  13.1400             1.827270E+01             9.854949E-02             2.412244E-01             4.993781E-01             5.932787E+00
                  13.3200             1.827312E+01             9.984234E-02             2.430589E-01             4.993666E-01             5.897693E+00
                  13.5000             1.827355E+01             1.011636E-01             2.451464E-01             4.993548E-01             5.861094E+00
                  13.6800             1.827400E+01             1.025107E-01             2.475169E-01             4.993426E-01             5.823016E+00
                  13.8600             1.827446E+01             1.038808E-01             2.502027E-01             4.993300E-01             5.783485E+00
                  14.0400             1.827493E+01             1.052690E-01             2.532387E-01             4.993170E-01             5.742528E+00
                  14.2200             1.827542E+01             1.066704E-01             2.566619E-01             4.993036E-01             5.700176E+00
                  14.4000             1.827592E+01             1.080774E-01             2.605118E-01             4.992898E-01             5.656461E+00
                  14.5800             1.827644E+01             1.094823E-01             2.648298E-01             4.992756E-01             5.611417E+00
                  14.7600             1.827697E+01             1.108761E-01             2.696595E-01             4.992610E-01             5.565081E+00
                  14.9400             1.827752E+01             1.122489E-01             2.750460E-01             4.992461E-01             5.517491E+00
                  15.1200             1.827808E+01             1.135901E-01             2.810353E-01             4.992307E-01             5.468688E+00
                  15.3000             1.827866E+01             1.148893E-01             2.876742E-01             4.992149E-01             5.418712E+00
                  15.4800             1.827924E+01             1.161357E-01             2.950089E-01             4.991988E-01             5.367609E+00
                  15.6600             1.827984E+01             1.173181E-01             3.030849E-01             4.991824E-01             5.315422E+00
                  15.8400             1.828045E+01             1.184269E-01             3.119452E-01             4.991656E-01             5.262200E+00
                  16.0200             1.828108E+01             1.194519E-01             3.216297E-01             4.991486E-01             5.207990E+00
                  16.2000             1.828170E+01             1.203853E-01             3.321742E-01             4.991314E-01             5.152843E+00
                  16.3800             1.828234E+01             1.212193E-01             3.436083E-01             4.991140E-01             5.096809E+00
                  16.5600             1.828298E+01             1.219473E-01             3.559551E-01             4.990965E-01             5.039939E+00
                  16.7400             1.828362E+01             1.225650E-01             3.692291E-01             4.990789E-01             4.982288E+00
                  16.9200             1.828426E+01             1.230678E-01             3.834355E-01             4.990614E-01             4.923909E+00
                  17.1000             1.828489E+01             1.234538E-01             3.985690E-01             4.990441E-01             4.864856E+00
                  17.2800             1.828552E+01             1.237215E-01             4.146128E-01             4.990269E-01             4.805184E+00
                  17.4600             1.828613E+01             1.238708E-01             4.315376E-01             4.990101E-01             4.744949E+00
                  17.6400             1.828673E+01             1.239032E-01             4.493016E-01             4.989937E-01             4.684206E+00
                  17.8200             1.828731E+01             1.238209E-01             4.678499E-01             4.989779E-01             4.623011E+00
                  18.0000             1.828786E+01             1.236263E-01             4.871146E-01             4.989627E-01             4.561419E+00
                  18.1800             1.828838E+01             1.233237E-01             5.070151E-01             4.989484E-01             4.499487E+00
                  18.3600             1.828887E+01             1.229177E-01             5.274590E-01             4.989349E-01             4.437270E+00
                  18.5400             1.828933E+01             1.224136E-01             5.483430E-01             4.989226E-01             4.374822E+00
                  18.7200             1.828973E+01             1.218171E-01             5.695536E-01             4.989114E-01             4.312198E+00
                  18.9000             1.829010E+01             1.211351E-01             5.909695E-01             4.989015E-01             4.249451E+00
                  19.0800             1.829040E+01             1.203740E-01             6.124625E-01             4.988930E-01             4.186635E+00
                  19.2600             1.829066E+01             1.195419E-01             6.338999E-01             4.988861E-01             4.123801E+00
                  19.4400             1.829085E+01             1.186459E-01             6.551462E-01             4.988808E-01             4.061000E+00
                  19.6200             1.829098E+01             1.176949E-01             6.760652E-01             4.988772E-01             3.998282E+00
                  19.8000             1.829105E+01             1.166971E-01             6.965218E-01             4.988754E-01             3.935696E+00
                  19.9800             1.829104E+01             1.156622E-01             7.163845E-01             4.988755E-01             3.873289E+00
                  20.1600             1.829097E+01             1.146000E-01             7.355267E-01             4.988775E-01             3.811106E+00
                  20.3400             1.829083E+01             1.135209E-01             7.538289E-01             4.988814E-01             3.749193E+00
                  20.5200             1.829062E+01             1.124365E-01             7.711800E-01             4.988872E-01             3.687592E+00
                  20.7000             1.829033E+01             1.113598E-01             7.874791E-01             4.988950E-01             3.626344E+00
                  20.8800             1.828998E+01             1.103050E-01             8.026358E-01             4.989048E-01             3.565490E+00
                  21.0600             1.828955E+01             1.092890E-01             8.165722E-01             4.989164E-01             3.505067E+00
                  21.2400             1.828906E+01             1.083322E-01             8.292228E-01             4.989300E-01             3.445111E+00
                  21.4200             1.828850E+01             1.074610E-01             8.405350E-01             4.989453E-01             3.385657E+00
                  21.6000             1.828788E+01             1.067113E-01             8.504697E-01             4.989623E-01             3.326737E+00
                  21.7800             1.828719E+01             1.061377E-01             8.590009E-01             4.989810E-01             3.268384E+00
                  21.9600             1.828646E+01             1.058357E-01             8.661155E-01             4.990012E-01             3.210625E+00
                  22.1400             1.828567E+01             1.060048E-01             8.718129E-01             4.990228E-01             3.153487E+00
                  22.3200             1.828483E+01             1.069201E-01             8.761045E-01             4.990458E-01             3.096998E+00
                  22.5000             1.828395E+01             1.084275E-01             8.790124E-01             4.990699E-01             3.041180E+00
                  22.6800             1.828303E+01             1.102624E-01             8.805695E-01             4.990952E-01             2.986055E+00
                  22.8600             1.828207E+01             1.122991E-01             8.808174E-01             4.991214E-01             2.931643E+00
                  23.0400             1.828108E+01             1.144724E-01             8.798064E-01             4.991484E-01             2.877964E+00
                  23.2200             1.828007E+01             1.167424E-01             8.775935E-01             4.991761E-01             2.825033E+00
                  23.4000             1.827904E+01             1.190821E-01             8.742421E-01             4.992043E-01             2.772866E+00
