                   Degree              F_vhoc_n[N]              F_vhoc_t[N]                 F_1_n[N]                 F_2_n[N]                  F_cx[N]                  F_cy[N]           F_resultant[N]
                   0.0000            -1.079856E+00            -4.851219E+01             3.786354E+00             5.154210E+00             1.367856E+00             1.992301E+01             1.996991E+01
                   0.1800            -2.601384E+00            -5.012443E+01             2.680163E+00             4.548143E+00             1.875005E+00             2.077320E+01             2.085765E+01
                   0.3600            -3.157241E+00            -5.016872E+01             2.172907E+00             4.538664E+00             2.379800E+00             2.085251E+01             2.098787E+01
                   0.5400            -3.711811E+00            -5.021328E+01             1.666629E+00             4.530659E+00             2.885084E+00             2.093233E+01             2.113022E+01
                   0.7200            -4.265358E+00            -5.025869E+01             1.161195E+00             4.523897E+00             3.390753E+00             2.101285E+01             2.128467E+01
                   0.9000            -4.817943E+00            -5.030525E+01             6.566210E-01             4.518234E+00             3.896645E+00             2.109414E+01             2.145103E+01
                   1.0800            -5.369659E+00            -5.035315E+01             1.528595E-01             4.513586E+00             4.402721E+00             2.117621E+01             2.162905E+01
                   1.2600            -5.920661E+00            -5.040252E+01            -3.502141E-01             4.509905E+00             4.909057E+00             2.125907E+01             2.181850E+01
                   1.4400            -6.470907E+00            -5.045339E+01            -8.525478E-01             4.507159E+00             5.415564E+00             2.134266E+01             2.201902E+01
                   1.6200            -7.020425E+00            -5.050579E+01            -1.354160E+00             4.505327E+00             5.922242E+00             2.142693E+01             2.223030E+01
                   1.8000            -7.569192E+00            -5.055972E+01            -1.855028E+00             4.504397E+00             6.429051E+00             2.151182E+01             2.245197E+01
                   1.9800            -8.117262E+00            -5.061518E+01            -2.355200E+00             4.504361E+00             6.936034E+00             2.159727E+01             2.268371E+01
                   2.1600            -8.664583E+00            -5.067217E+01            -2.854630E+00             4.505210E+00             7.443134E+00             2.168320E+01             2.292512E+01
                   2.3400            -9.211177E+00            -5.073066E+01            -3.353338E+00             4.506941E+00             7.950368E+00             2.176954E+01             2.317587E+01
                   2.5200            -9.757022E+00            -5.079064E+01            -3.851304E+00             4.509546E+00             8.457710E+00             2.185621E+01             2.343559E+01
                   2.7000            -1.030211E+01            -5.085209E+01            -4.348523E+00             4.513022E+00             8.965150E+00             2.194314E+01             2.370391E+01
                   2.8800            -1.084644E+01            -5.091500E+01            -4.844999E+00             4.517362E+00             9.472688E+00             2.203027E+01             2.398050E+01
                   3.0600            -1.138999E+01            -5.097933E+01            -5.340713E+00             4.522559E+00             9.980300E+00             2.211750E+01             2.426500E+01
                   3.2400            -1.193278E+01            -5.104506E+01            -5.835673E+00             4.528604E+00             1.048799E+01             2.220476E+01             2.455706E+01
                   3.4200            -1.247479E+01            -5.111217E+01            -6.329880E+00             4.535486E+00             1.099574E+01             2.229199E+01             2.485637E+01
                   3.6000            -1.301602E+01            -5.118062E+01            -6.823331E+00             4.543189E+00             1.150354E+01             2.237910E+01             2.516258E+01
                   3.7800            -1.355648E+01            -5.125035E+01            -7.316033E+00             4.551687E+00             1.201137E+01             2.246603E+01             2.547539E+01
                   3.9600            -1.409620E+01            -5.132131E+01            -7.808014E+00             4.560938E+00             1.251923E+01             2.255271E+01             2.579449E+01
                   4.1400            -1.463521E+01            -5.139336E+01            -8.299310E+00             4.570865E+00             1.302706E+01             2.263908E+01             2.611957E+01
                   4.3200            -1.517364E+01            -5.146628E+01            -8.790036E+00             4.581303E+00             1.353483E+01             2.272510E+01             2.645036E+01
                   4.5000            -1.571169E+01            -5.153967E+01            -9.280379E+00             4.591962E+00             1.404242E+01             2.281078E+01             2.678659E+01
                   4.6800            -1.624954E+01            -5.161320E+01            -9.770500E+00             4.602607E+00             1.454975E+01             2.289615E+01             2.712801E+01
                   4.8600            -1.678722E+01            -5.168678E+01            -1.026044E+01             4.613172E+00             1.505680E+01             2.298121E+01             2.747441E+01
                   5.0400            -1.732473E+01            -5.176036E+01            -1.075018E+01             4.623649E+00             1.556355E+01             2.306594E+01             2.782556E+01
                   5.2200            -1.786204E+01            -5.183396E+01            -1.123973E+01             4.634039E+00             1.606999E+01             2.315034E+01             2.818125E+01
                   5.4000            -1.839914E+01            -5.190754E+01            -1.172907E+01             4.644344E+00             1.657611E+01             2.323440E+01             2.854128E+01
                   5.5800            -1.893601E+01            -5.198110E+01            -1.221819E+01             4.654566E+00             1.708191E+01             2.331810E+01             2.890546E+01
                   5.7600            -1.947264E+01            -5.205463E+01            -1.270708E+01             4.664707E+00             1.758737E+01             2.340144E+01             2.927359E+01
                   5.9400            -2.000901E+01            -5.212811E+01            -1.319573E+01             4.674767E+00             1.809249E+01             2.348440E+01             2.964549E+01
                   6.1200            -2.054511E+01            -5.220153E+01            -1.368413E+01             4.684749E+00             1.859726E+01             2.356696E+01             3.002099E+01
                   6.3000            -2.108091E+01            -5.227489E+01            -1.417227E+01             4.694655E+00             1.910167E+01             2.364912E+01             3.039991E+01
                   6.4800            -2.161639E+01            -5.234816E+01            -1.466014E+01             4.704486E+00             1.960571E+01             2.373085E+01             3.078208E+01
                   6.6600            -2.215156E+01            -5.242133E+01            -1.514773E+01             4.714245E+00             2.010937E+01             2.381214E+01             3.116737E+01
                   6.8400            -2.268637E+01            -5.249440E+01            -1.563503E+01             4.723933E+00             2.061265E+01             2.389297E+01             3.155559E+01
                   7.0200            -2.322083E+01            -5.256734E+01            -1.612203E+01             4.733552E+00             2.111554E+01             2.397334E+01             3.194662E+01
                   7.2000            -2.375490E+01            -5.264015E+01            -1.660872E+01             4.743104E+00             2.161802E+01             2.405321E+01             3.234031E+01
                   7.3800            -2.428859E+01            -5.271282E+01            -1.709508E+01             4.752592E+00             2.212010E+01             2.413257E+01             3.273653E+01
                   7.5600            -2.482186E+01            -5.278533E+01            -1.758112E+01             4.762016E+00             2.262177E+01             2.421141E+01             3.313513E+01
                   7.7400            -2.535470E+01            -5.285767E+01            -1.806681E+01             4.771380E+00             2.312301E+01             2.428970E+01             3.353600E+01
                   7.9200            -2.588709E+01            -5.292983E+01            -1.855215E+01             4.780685E+00             2.362382E+01             2.436742E+01             3.393901E+01
                   8.1000            -2.641902E+01            -5.300179E+01            -1.903713E+01             4.789933E+00             2.412419E+01             2.444456E+01             3.434404E+01
                   8.2800            -2.695047E+01            -5.307354E+01            -1.952173E+01             4.799126E+00             2.462412E+01             2.452108E+01             3.475098E+01
                   8.4600            -2.748143E+01            -5.314508E+01            -2.000596E+01             4.808265E+00             2.512360E+01             2.459698E+01             3.515973E+01
                   8.6400            -2.801187E+01            -5.321639E+01            -2.048979E+01             4.817354E+00             2.562262E+01             2.467222E+01             3.557017E+01
                   8.8200            -2.854178E+01            -5.328745E+01            -2.097322E+01             4.826393E+00             2.612117E+01             2.474679E+01             3.598221E+01
                   9.0000            -2.907114E+01            -5.335826E+01            -2.145623E+01             4.835385E+00             2.661926E+01             2.482066E+01             3.639574E+01
                   9.1800            -2.959994E+01            -5.342881E+01            -2.193883E+01             4.844331E+00             2.711686E+01             2.489381E+01             3.681068E+01
                   9.3600            -3.012817E+01            -5.349908E+01            -2.242099E+01             4.853233E+00             2.761398E+01             2.496622E+01             3.722693E+01
                   9.5400            -3.065579E+01            -5.356906E+01            -2.290271E+01             4.862092E+00             2.811061E+01             2.503787E+01             3.764440E+01
                   9.7200            -3.118280E+01            -5.363875E+01            -2.338398E+01             4.870910E+00             2.860674E+01             2.510872E+01             3.806302E+01
                   9.9000            -3.170919E+01            -5.370814E+01            -2.386478E+01             4.879689E+00             2.910237E+01             2.517876E+01             3.848270E+01
                  10.0800            -3.223493E+01            -5.377720E+01            -2.434512E+01             4.888429E+00             2.959749E+01             2.524797E+01             3.890336E+01
                  10.2600            -3.276002E+01            -5.384595E+01            -2.482497E+01             4.897133E+00             3.009210E+01             2.531631E+01             3.932493E+01
                  10.4400            -3.328443E+01            -5.391436E+01            -2.530434E+01             4.905800E+00             3.058618E+01             2.538378E+01             3.974733E+01
                  10.6200            -3.380815E+01            -5.398243E+01            -2.578321E+01             4.914432E+00             3.107974E+01             2.545033E+01             4.017051E+01
                  10.8000            -3.433117E+01            -5.405015E+01            -2.626157E+01             4.923029E+00             3.157277E+01             2.551596E+01             4.059438E+01
                  10.9800            -3.485346E+01            -5.411751E+01            -2.673941E+01             4.931592E+00             3.206526E+01             2.558064E+01             4.101890E+01
                  11.1600            -3.537503E+01            -5.418451E+01            -2.721673E+01             4.940121E+00             3.255721E+01             2.564435E+01             4.144399E+01
                  11.3400            -3.589585E+01            -5.425114E+01            -2.769352E+01             4.948617E+00             3.304861E+01             2.570706E+01             4.186960E+01
                  11.5200            -3.641591E+01            -5.431740E+01            -2.816976E+01             4.957080E+00             3.353946E+01             2.576876E+01             4.229567E+01
                  11.7000            -3.693520E+01            -5.438327E+01            -2.864545E+01             4.965509E+00             3.402974E+01             2.582942E+01             4.272215E+01
                  11.8800            -3.745370E+01            -5.444877E+01            -2.912059E+01             4.973903E+00             3.451947E+01             2.588903E+01             4.314899E+01
                  12.0600            -3.797140E+01            -5.451387E+01            -2.959515E+01             4.982263E+00             3.500863E+01             2.594756E+01             4.357614E+01
                  12.2400            -3.848830E+01            -5.457859E+01            -3.006915E+01             4.990586E+00             3.549721E+01             2.600501E+01             4.400355E+01
                  12.4200            -3.900437E+01            -5.464291E+01            -3.054256E+01             4.998873E+00             3.598522E+01             2.606134E+01             4.443117E+01
                  12.6000            -3.951961E+01            -5.470684E+01            -3.101538E+01             5.007121E+00             3.647264E+01             2.611655E+01             4.485897E+01
                  12.7800            -4.003400E+01            -5.477037E+01            -3.148761E+01             5.015329E+00             3.695947E+01             2.617063E+01             4.528691E+01
                  12.9600            -4.054754E+01            -5.483351E+01            -3.195924E+01             5.023495E+00             3.744570E+01             2.622355E+01             4.571493E+01
                  13.1400            -4.106022E+01            -5.489625E+01            -3.243025E+01             5.031616E+00             3.793134E+01             2.627530E+01             4.614302E+01
                  13.3200            -4.157202E+01            -5.495860E+01            -3.290065E+01             5.039690E+00             3.841637E+01             2.632588E+01             4.657112E+01
                  13.5000            -4.208294E+01            -5.502056E+01            -3.337043E+01             5.047715E+00             3.890079E+01             2.637528E+01             4.699922E+01
                  13.6800            -4.259297E+01            -5.508213E+01            -3.383958E+01             5.055687E+00             3.938459E+01             2.642347E+01             4.742727E+01
                  13.8600            -4.310210E+01            -5.514331E+01            -3.430810E+01             5.063602E+00             3.986778E+01             2.647047E+01             4.785525E+01
                  14.0400            -4.361032E+01            -5.520412E+01            -3.477598E+01             5.071458E+00             4.035033E+01             2.651626E+01             4.828314E+01
                  14.2200            -4.411763E+01            -5.526455E+01            -3.524321E+01             5.079250E+00             4.083225E+01             2.656084E+01             4.871089E+01
                  14.4000            -4.462402E+01            -5.532461E+01            -3.570980E+01             5.086975E+00             4.131354E+01             2.660420E+01             4.913849E+01
                  14.5800            -4.512948E+01            -5.538431E+01            -3.617573E+01             5.094627E+00             4.179417E+01             2.664634E+01             4.956592E+01
                  14.7600            -4.563400E+01            -5.544365E+01            -3.664100E+01             5.102202E+00             4.227416E+01             2.668727E+01             4.999315E+01
                  14.9400            -4.613759E+01            -5.550264E+01            -3.710561E+01             5.109695E+00             4.275349E+01             2.672699E+01             5.042016E+01
                  15.1200            -4.664024E+01            -5.556129E+01            -3.756955E+01             5.117101E+00             4.323215E+01             2.676550E+01             5.084694E+01
                  15.3000            -4.714193E+01            -5.561961E+01            -3.803282E+01             5.124414E+00             4.371015E+01             2.680280E+01             5.127345E+01
                  15.4800            -4.764267E+01            -5.567761E+01            -3.849541E+01             5.131628E+00             4.418746E+01             2.683890E+01             5.169970E+01
                  15.6600            -4.814246E+01            -5.573530E+01            -3.895732E+01             5.138739E+00             4.466410E+01             2.687381E+01             5.212565E+01
                  15.8400            -4.864129E+01            -5.579269E+01            -3.941856E+01             5.145738E+00             4.514004E+01             2.690754E+01             5.255130E+01
                  16.0200            -4.913915E+01            -5.584979E+01            -3.987910E+01             5.152621E+00             4.561528E+01             2.694010E+01             5.297662E+01
                  16.2000            -4.963605E+01            -5.590661E+01            -4.033896E+01             5.159381E+00             4.608981E+01             2.697150E+01             5.340162E+01
                  16.3800            -5.013197E+01            -5.596317E+01            -4.079813E+01             5.166011E+00             4.656363E+01             2.700176E+01             5.382627E+01
                  16.5600            -5.062693E+01            -5.601947E+01            -4.125660E+01             5.172503E+00             4.703673E+01             2.703089E+01             5.425056E+01
                  16.7400            -5.112092E+01            -5.607553E+01            -4.171437E+01             5.178852E+00             4.750910E+01             2.705891E+01             5.467448E+01
                  16.9200            -5.161393E+01            -5.613136E+01            -4.217145E+01             5.185049E+00             4.798073E+01             2.708584E+01             5.509803E+01
                  17.1000            -5.210597E+01            -5.618698E+01            -4.262782E+01             5.191088E+00             4.845161E+01             2.711169E+01             5.552119E+01
                  17.2800            -5.259703E+01            -5.624240E+01            -4.308349E+01             5.196961E+00             4.892174E+01             2.713649E+01             5.594395E+01
                  17.4600            -5.308711E+01            -5.629763E+01            -4.353845E+01             5.202661E+00             4.939110E+01             2.716025E+01             5.636630E+01
