                             Degree                         Volume[m3]                    I.Pressure[kPa]                   I.Temperature[K]                         I.Mass[kg]
                             0.0000                       5.000000E-08                       1.006904E+02                       3.039742E+02                       5.771454E-08
                             0.1800                       5.005066E-08                       1.006904E+02                       3.039742E+02                       5.777301E-08
                             0.3600                       5.009648E-08                       1.006904E+02                       3.039742E+02                       5.782590E-08
                             0.5400                       5.013763E-08                       1.006904E+02                       3.039742E+02                       5.787340E-08
                             0.7200                       5.017429E-08                       1.006904E+02                       3.039742E+02                       5.791572E-08
                             0.9000                       5.020665E-08                       1.006904E+02                       3.039742E+02                       5.795308E-08
                             1.0800                       5.023489E-08                       1.006904E+02                       3.039742E+02                       5.798567E-08
                             1.2600                       5.025918E-08                       1.006904E+02                       3.039742E+02                       5.801370E-08
                             1.4400                       5.027970E-08                       1.006904E+02                       3.039742E+02                       5.803739E-08
                             1.6200                       5.029663E-08                       1.006904E+02                       3.039742E+02                       5.805693E-08
                             1.8000                       5.031015E-08                       1.006904E+02                       3.039742E+02                       5.807254E-08
                             1.9800                       5.032045E-08                       1.006904E+02                       3.039742E+02                       5.808442E-08
                             2.1600                       5.032769E-08                       1.006904E+02                       3.039742E+02                       5.809279E-08
                             2.3400                       5.033207E-08                       1.006904E+02                       3.039742E+02                       5.809784E-08
                             2.5200                       5.033375E-08                       1.006904E+02                       3.039742E+02                       5.809978E-08
                             2.7000                       5.033292E-08                       1.006904E+02                       3.039742E+02                       5.809883E-08
                             2.8800                       5.032977E-08                       1.006904E+02                       3.039742E+02                       5.809518E-08
                             3.0600                       5.032446E-08                       1.006904E+02                       3.039742E+02                       5.808906E-08
                             3.2400                       5.031718E-08                       1.006904E+02                       3.039742E+02                       5.808066E-08
                             3.4200                       5.030811E-08                       1.006904E+02                       3.039742E+02                       5.807019E-08
                             3.6000                       5.029743E-08                       1.006904E+02                       3.039742E+02                       5.805786E-08
                             3.7800                       5.028532E-08                       1.006904E+02                       3.039742E+02                       5.804388E-08
                             3.9600                       5.027195E-08                       1.006904E+02                       3.039742E+02                       5.802845E-08
                             4.1400                       5.025752E-08                       1.006904E+02                       3.039742E+02                       5.801178E-08
                             4.3200                       5.024219E-08                       1.006904E+02                       3.039742E+02                       5.799409E-08
                             4.5000                       5.022615E-08                       1.006904E+02                       3.039742E+02                       5.797557E-08
                             4.6800                       5.020957E-08                       1.006904E+02                       3.039742E+02                       5.795644E-08
                             4.8600                       5.019265E-08                       1.006904E+02                       3.039742E+02                       5.793691E-08
                             5.0400                       5.017555E-08                       1.006904E+02                       3.039742E+02                       5.791717E-08
                             5.2200                       5.015845E-08                       1.006904E+02                       3.039742E+02                       5.789744E-08
                             5.4000                       5.014155E-08                       1.006904E+02                       3.039742E+02                       5.787793E-08
                             5.5800                       5.012501E-08                       1.006904E+02                       3.039742E+02                       5.785884E-08
                             5.7600                       5.010902E-08                       1.006904E+02                       3.039742E+02                       5.784038E-08
                             5.9400                       5.009376E-08                       1.006904E+02                       3.039742E+02                       5.782276E-08
                             6.1200                       5.007940E-08                       1.006904E+02                       3.039742E+02                       5.780618E-08
                             6.3000                       5.006612E-08                       1.006904E+02                       3.039742E+02                       5.779086E-08
                             6.4800                       5.005412E-08                       1.006904E+02                       3.039742E+02                       5.777700E-08
                             6.6600                       5.004355E-08                       1.006904E+02                       3.039742E+02                       5.776481E-08
                             6.8400                       5.003462E-08                       1.006904E+02                       3.039742E+02                       5.775449E-08
                             7.0200                       5.002748E-08                       1.006904E+02                       3.039742E+02                       5.774626E-08
                             7.2000                       5.002233E-08                       1.006904E+02                       3.039742E+02                       5.774032E-08
                             7.3800                       5.001935E-08                       1.006904E+02                       3.039742E+02                       5.773687E-08
                             7.5600                       5.001871E-08                       1.006904E+02                       3.039742E+02                       5.773613E-08
                             7.7400                       5.002059E-08                       1.006904E+02                       3.039742E+02                       5.773830E-08
                             7.9200                       5.002517E-08                       1.006904E+02                       3.039742E+02                       5.774359E-08
                             8.1000                       5.003263E-08                       1.006904E+02                       3.039742E+02                       5.775221E-08
                             8.2800                       5.004316E-08                       1.006904E+02                       3.039742E+02                       5.776435E-08
                             8.4600                       5.005692E-08                       1.006904E+02                       3.039742E+02                       5.778024E-08
                             8.6400                       5.007411E-08                       1.006904E+02                       3.039742E+02                       5.780008E-08
                             8.8200                       5.009489E-08                       1.006904E+02                       3.039742E+02                       5.782406E-08
                             9.0000                       5.011945E-08                       1.006904E+02                       3.039742E+02                       5.785241E-08
                             9.1800                       5.014796E-08                       1.006904E+02                       3.039742E+02                       5.788533E-08
                             9.3600                       5.018061E-08                       1.006904E+02                       3.039742E+02                       5.792301E-08
                             9.5400                       5.021757E-08                       1.006904E+02                       3.039742E+02                       5.796568E-08
                             9.7200                       5.025903E-08                       1.006904E+02                       3.039742E+02                       5.801353E-08
                             9.9000                       5.030516E-08                       1.006904E+02                       3.039742E+02                       5.806677E-08
                            10.0800                       5.035613E-08                       1.006904E+02                       3.039742E+02                       5.812562E-08
                            10.2600                       5.041214E-08                       1.006904E+02                       3.039742E+02                       5.819026E-08
                            10.4400                       5.047335E-08                       1.006904E+02                       3.039742E+02                       5.826092E-08
                            10.6200                       5.053994E-08                       1.006904E+02                       3.039742E+02                       5.833779E-08
                            10.8000                       5.061210E-08                       1.006904E+02                       3.039742E+02                       5.842108E-08
                            10.9800                       5.069000E-08                       1.006904E+02                       3.039742E+02                       5.851100E-08
                            11.1600                       5.077382E-08                       1.006904E+02                       3.039742E+02                       5.860775E-08
                            11.3400                       5.086374E-08                       1.006904E+02                       3.039742E+02                       5.871154E-08
                            11.5200                       5.095993E-08                       1.006904E+02                       3.039742E+02                       5.882258E-08
                            11.7000                       5.106258E-08                       1.006904E+02                       3.039742E+02                       5.894106E-08
                            11.8800                       5.117185E-08                       1.006904E+02                       3.039742E+02                       5.906719E-08
                            12.0600                       5.128793E-08                       1.006904E+02                       3.039742E+02                       5.920119E-08
                            12.2400                       5.141100E-08                       1.006904E+02                       3.039742E+02                       5.934324E-08
                            12.4200                       5.154123E-08                       1.006904E+02                       3.039742E+02                       5.949356E-08
                            12.6000                       5.167880E-08                       1.006904E+02                       3.039742E+02                       5.965236E-08
                            12.7800                       5.182389E-08                       1.006904E+02                       3.039742E+02                       5.981983E-08
                            12.9600                       5.197667E-08                       1.006904E+02                       3.039742E+02                       5.999618E-08
                            13.1400                       5.213732E-08                       1.006904E+02                       3.039742E+02                       6.018162E-08
                            13.3200                       5.230601E-08                       1.006904E+02                       3.039742E+02                       6.037634E-08
                            13.5000                       5.248293E-08                       1.006904E+02                       3.039742E+02                       6.058056E-08
                            13.6800                       5.266825E-08                       1.006904E+02                       3.039742E+02                       6.079447E-08
                            13.8600                       5.286215E-08                       1.006904E+02                       3.039742E+02                       6.101828E-08
                            14.0400                       5.306479E-08                       1.006904E+02                       3.039742E+02                       6.125220E-08
                            14.2200                       5.327637E-08                       1.006904E+02                       3.039742E+02                       6.149642E-08
                            14.4000                       5.349705E-08                       1.006904E+02                       3.039742E+02                       6.175114E-08
                            14.5800                       5.372700E-08                       1.006904E+02                       3.039742E+02                       6.201658E-08
                            14.7600                       5.396642E-08                       1.006904E+02                       3.039742E+02                       6.229293E-08
                            14.9400                       5.421546E-08                       1.006904E+02                       3.039742E+02                       6.258040E-08
                            15.1200                       5.447431E-08                       1.006904E+02                       3.039742E+02                       6.287919E-08
                            15.3000                       5.474313E-08                       1.006904E+02                       3.039742E+02                       6.318949E-08
                            15.4800                       5.502212E-08                       1.006904E+02                       3.039742E+02                       6.351152E-08
                            15.6600                       5.531143E-08                       1.006904E+02                       3.039742E+02                       6.384547E-08
                            15.8400                       5.561124E-08                       1.006904E+02                       3.039742E+02                       6.419154E-08
                            16.0200                       5.592174E-08                       1.006904E+02                       3.039742E+02                       6.454994E-08
                            16.2000                       5.624309E-08                       1.006904E+02                       3.039742E+02                       6.492087E-08
                            16.3800                       5.657546E-08                       1.006904E+02                       3.039742E+02                       6.530453E-08
                            16.5600                       5.691904E-08                       1.006904E+02                       3.039742E+02                       6.570112E-08
                            16.7400                       5.727398E-08                       1.006904E+02                       3.039742E+02                       6.611083E-08
                            16.9200                       5.764048E-08                       1.006904E+02                       3.039742E+02                       6.653387E-08
                            17.1000                       5.801870E-08                       1.006904E+02                       3.039742E+02                       6.697044E-08
                            17.2800                       5.840881E-08                       1.006904E+02                       3.039742E+02                       6.742075E-08
                            17.4600                       5.881099E-08                       1.006904E+02                       3.039742E+02                       6.788498E-08
                            17.6400                       5.922540E-08                       1.006904E+02                       3.039742E+02                       6.836333E-08
                            17.8200                       5.965223E-08                       1.006904E+02                       3.039742E+02                       6.885602E-08
                            18.0000                       6.009165E-08                       1.006904E+02                       3.039742E+02                       6.936323E-08
                            18.1800                       6.054382E-08                       1.006904E+02                       3.039742E+02                       6.988517E-08
                            18.3600                       6.100891E-08                       1.006904E+02                       3.039742E+02                       7.042202E-08
                            18.5400                       6.148711E-08                       1.006904E+02                       3.039742E+02                       7.097400E-08
                            18.7200                       6.197858E-08                       1.006904E+02                       3.039742E+02                       7.154130E-08
                            18.9000                       6.248349E-08                       1.006904E+02                       3.039742E+02                       7.212412E-08
                            19.0800                       6.300202E-08                       1.006904E+02                       3.039742E+02                       7.272265E-08
                            19.2600                       6.353433E-08                       1.006904E+02                       3.039742E+02                       7.333709E-08
                            19.4400                       6.408059E-08                       1.006904E+02                       3.039742E+02                       7.396763E-08
                            19.6200                       6.464098E-08                       1.006904E+02                       3.039742E+02                       7.461449E-08
                            19.8000                       6.521567E-08                       1.006904E+02                       3.039742E+02                       7.527784E-08
                            19.9800                       6.580482E-08                       1.006904E+02                       3.039742E+02                       7.595790E-08
