                   Degree              F_vhoc_n[N]              F_vhoc_t[N]                 F_1_n[N]                 F_2_n[N]                  F_cx[N]                  F_cy[N]           F_resultant[N]
                   0.0000            -1.215490E+00            -4.845394E+01             3.664643E+00             5.078340E+00             1.413696E+00             1.991516E+01             1.996527E+01
                   0.1800            -2.343901E-01            -4.564469E+01             4.024151E+00             6.163545E+00             2.145767E+00             1.854798E+01             1.867169E+01
                   0.3600            -5.736869E-01            -4.563950E+01             3.721463E+00             6.153990E+00             2.445411E+00             1.852845E+01             1.868912E+01
                   0.5400            -9.182027E-01            -4.565014E+01             3.416505E+00             6.141246E+00             2.744276E+00             1.851703E+01             1.871928E+01
                   0.7200            -1.263724E+00            -4.566830E+01             3.111550E+00             6.128525E+00             3.043297E+00             1.850967E+01             1.875819E+01
                   0.9000            -1.608455E+00            -4.569054E+01             2.807594E+00             6.117145E+00             3.342796E+00             1.850452E+01             1.880403E+01
                   1.0800            -1.951781E+00            -4.571562E+01             2.504965E+00             6.107568E+00             3.642901E+00             1.850081E+01             1.885605E+01
                   1.2600            -2.293497E+00            -4.574303E+01             2.203750E+00             6.099990E+00             3.943724E+00             1.849810E+01             1.891382E+01
                   1.4400            -2.633487E+00            -4.577258E+01             1.904028E+00             6.094462E+00             4.245236E+00             1.849615E+01             1.897708E+01
                   1.6200            -2.971744E+00            -4.580424E+01             1.605801E+00             6.090993E+00             4.547442E+00             1.849478E+01             1.904563E+01
                   1.8000            -3.308250E+00            -4.583798E+01             1.309086E+00             6.089576E+00             4.850323E+00             1.849381E+01             1.911928E+01
                   1.9800            -3.643046E+00            -4.587381E+01             1.013848E+00             6.090200E+00             5.153905E+00             1.849310E+01             1.919785E+01
                   2.1600            -3.976123E+00            -4.591173E+01             7.201046E-01             6.092845E+00             5.458154E+00             1.849250E+01             1.928118E+01
                   2.3400            -4.307518E+00            -4.595173E+01             4.278265E-01             6.097485E+00             5.763075E+00             1.849186E+01             1.936910E+01
                   2.5200            -4.637292E+00            -4.599374E+01             1.369683E-01             6.104033E+00             6.068634E+00             1.849104E+01             1.946142E+01
                   2.7000            -4.966242E+00            -4.603645E+01            -1.531743E-01             6.111480E+00             6.374520E+00             1.848987E+01             1.955785E+01
                   2.8800            -5.294984E+00            -4.607886E+01            -4.431477E-01             6.119047E+00             6.680496E+00             1.848826E+01             1.965820E+01
                   3.0600            -5.623513E+00            -4.612100E+01            -7.329444E-01             6.126726E+00             6.986545E+00             1.848623E+01             1.976240E+01
                   3.2400            -5.951839E+00            -4.616288E+01            -1.022572E+00             6.134505E+00             7.292665E+00             1.848378E+01             1.987041E+01
                   3.4200            -6.279970E+00            -4.620453E+01            -1.312035E+00             6.142374E+00             7.598849E+00             1.848092E+01             1.998216E+01
                   3.6000            -6.607907E+00            -4.624597E+01            -1.601332E+00             6.150323E+00             7.905085E+00             1.847765E+01             2.009761E+01
                   3.7800            -6.935654E+00            -4.628723E+01            -1.890463E+00             6.158341E+00             8.211365E+00             1.847398E+01             2.021669E+01
                   3.9600            -7.263222E+00            -4.632831E+01            -2.179435E+00             6.166418E+00             8.517684E+00             1.846993E+01             2.033935E+01
                   4.1400            -7.590608E+00            -4.636926E+01            -2.468245E+00             6.174544E+00             8.824030E+00             1.846550E+01             2.046553E+01
                   4.3200            -7.917823E+00            -4.641008E+01            -2.756899E+00             6.182708E+00             9.130396E+00             1.846070E+01             2.059518E+01
                   4.5000            -8.244868E+00            -4.645081E+01            -3.045395E+00             6.190899E+00             9.436773E+00             1.845555E+01             2.072825E+01
                   4.6800            -8.571752E+00            -4.649146E+01            -3.333738E+00             6.199107E+00             9.743154E+00             1.845008E+01             2.086467E+01
                   4.8600            -8.898480E+00            -4.653206E+01            -3.621929E+00             6.207322E+00             1.004953E+01             1.844428E+01             2.100439E+01
                   5.0400            -9.225057E+00            -4.657262E+01            -3.909972E+00             6.215532E+00             1.035589E+01             1.843818E+01             2.114736E+01
                   5.2200            -9.551488E+00            -4.661318E+01            -4.197866E+00             6.223728E+00             1.066223E+01             1.843181E+01             2.129353E+01
                   5.4000            -9.877781E+00            -4.665375E+01            -4.485616E+00             6.231898E+00             1.096854E+01             1.842517E+01             2.144285E+01
                   5.5800            -1.020394E+01            -4.669436E+01            -4.773221E+00             6.240031E+00             1.127481E+01             1.841830E+01             2.159525E+01
                   5.7600            -1.052997E+01            -4.673503E+01            -5.060688E+00             6.248118E+00             1.158103E+01             1.841122E+01             2.175070E+01
                   5.9400            -1.085588E+01            -4.677579E+01            -5.348015E+00             6.256146E+00             1.188719E+01             1.840395E+01             2.190914E+01
                   6.1200            -1.118168E+01            -4.681665E+01            -5.635208E+00             6.264105E+00             1.219328E+01             1.839651E+01             2.207052E+01
                   6.3000            -1.150737E+01            -4.685765E+01            -5.922267E+00             6.271984E+00             1.249929E+01             1.838895E+01             2.223479E+01
                   6.4800            -1.183296E+01            -4.689879E+01            -6.209194E+00             6.279771E+00             1.280522E+01             1.838129E+01             2.240191E+01
                   6.6600            -1.215846E+01            -4.694012E+01            -6.495995E+00             6.287456E+00             1.311106E+01             1.837355E+01             2.257182E+01
                   6.8400            -1.248387E+01            -4.698165E+01            -6.782669E+00             6.295028E+00             1.341678E+01             1.836577E+01             2.274449E+01
                   7.0200            -1.280919E+01            -4.702340E+01            -7.069220E+00             6.302474E+00             1.372239E+01             1.835799E+01             2.291986E+01
                   7.2000            -1.313445E+01            -4.706540E+01            -7.355650E+00             6.309785E+00             1.402788E+01             1.835024E+01             2.309789E+01
                   7.3800            -1.345964E+01            -4.710767E+01            -7.641964E+00             6.316948E+00             1.433323E+01             1.834256E+01             2.327855E+01
                   7.5600            -1.378477E+01            -4.715024E+01            -7.928163E+00             6.323953E+00             1.463843E+01             1.833498E+01             2.346177E+01
                   7.7400            -1.410985E+01            -4.719312E+01            -8.214249E+00             6.330788E+00             1.494347E+01             1.832754E+01             2.364753E+01
                   7.9200            -1.443489E+01            -4.723635E+01            -8.500227E+00             6.337442E+00             1.524834E+01             1.832028E+01             2.383578E+01
                   8.1000            -1.475989E+01            -4.727994E+01            -8.786097E+00             6.343904E+00             1.555304E+01             1.831325E+01             2.402648E+01
                   8.2800            -1.508486E+01            -4.732392E+01            -9.071863E+00             6.350162E+00             1.585754E+01             1.830648E+01             2.421959E+01
                   8.4600            -1.540981E+01            -4.736831E+01            -9.357527E+00             6.356207E+00             1.616184E+01             1.830002E+01             2.441507E+01
                   8.6400            -1.573475E+01            -4.741313E+01            -9.643092E+00             6.362026E+00             1.646592E+01             1.829391E+01             2.461288E+01
                   8.8200            -1.605967E+01            -4.745840E+01            -9.928560E+00             6.367610E+00             1.676978E+01             1.828820E+01             2.481297E+01
                   9.0000            -1.638460E+01            -4.750414E+01            -1.021393E+01             6.372947E+00             1.707339E+01             1.828293E+01             2.501532E+01
                   9.1800            -1.670952E+01            -4.755038E+01            -1.049922E+01             6.378027E+00             1.737676E+01             1.827815E+01             2.521988E+01
                   9.3600            -1.703446E+01            -4.759714E+01            -1.078441E+01             6.382840E+00             1.767986E+01             1.827390E+01             2.542662E+01
                   9.5400            -1.735942E+01            -4.764443E+01            -1.106951E+01             6.387375E+00             1.798269E+01             1.827023E+01             2.563549E+01
                   9.7200            -1.768440E+01            -4.769227E+01            -1.135453E+01             6.391624E+00             1.828523E+01             1.826719E+01             2.584646E+01
                   9.9000            -1.800941E+01            -4.774068E+01            -1.163947E+01             6.395575E+00             1.858747E+01             1.826482E+01             2.605950E+01
                  10.0800            -1.833445E+01            -4.778969E+01            -1.192432E+01             6.399220E+00             1.888939E+01             1.826317E+01             2.627456E+01
                  10.2600            -1.865953E+01            -4.783929E+01            -1.220909E+01             6.402550E+00             1.919098E+01             1.826229E+01             2.649160E+01
                  10.4400            -1.898465E+01            -4.788952E+01            -1.249378E+01             6.405555E+00             1.949223E+01             1.826222E+01             2.671059E+01
                  10.6200            -1.930982E+01            -4.794038E+01            -1.277839E+01             6.408229E+00             1.979313E+01             1.826301E+01             2.693150E+01
                  10.8000            -1.963504E+01            -4.799188E+01            -1.306293E+01             6.410562E+00             2.009366E+01             1.826471E+01             2.715427E+01
                  10.9800            -1.996031E+01            -4.804405E+01            -1.334738E+01             6.412547E+00             2.039380E+01             1.826735E+01             2.737889E+01
                  11.1600            -2.028563E+01            -4.809689E+01            -1.363176E+01             6.414177E+00             2.069356E+01             1.827099E+01             2.760530E+01
                  11.3400            -2.061101E+01            -4.815041E+01            -1.391606E+01             6.415445E+00             2.099290E+01             1.827566E+01             2.783346E+01
                  11.5200            -2.093645E+01            -4.820461E+01            -1.420028E+01             6.416345E+00             2.129182E+01             1.828141E+01             2.806335E+01
                  11.7000            -2.126194E+01            -4.825952E+01            -1.448442E+01             6.416871E+00             2.159030E+01             1.828828E+01             2.829491E+01
                  11.8800            -2.158749E+01            -4.831513E+01            -1.476848E+01             6.417018E+00             2.188834E+01             1.829629E+01             2.852812E+01
                  12.0600            -2.191310E+01            -4.837144E+01            -1.505246E+01             6.416781E+00             2.218591E+01             1.830550E+01             2.876293E+01
                  12.2400            -2.223876E+01            -4.842847E+01            -1.533636E+01             6.416156E+00             2.248300E+01             1.831594E+01             2.899929E+01
                  12.4200            -2.256447E+01            -4.848621E+01            -1.562017E+01             6.415139E+00             2.277961E+01             1.832763E+01             2.923718E+01
                  12.6000            -2.289022E+01            -4.854466E+01            -1.590389E+01             6.413728E+00             2.307571E+01             1.834062E+01             2.947654E+01
                  12.7800            -2.321602E+01            -4.860382E+01            -1.618752E+01             6.411919E+00             2.337130E+01             1.835492E+01             2.971734E+01
                  12.9600            -2.354186E+01            -4.866370E+01            -1.647105E+01             6.409711E+00             2.366635E+01             1.837057E+01             2.995954E+01
                  13.1400            -2.386773E+01            -4.872427E+01            -1.675448E+01             6.407103E+00             2.396087E+01             1.838758E+01             3.020308E+01
                  13.3200            -2.419363E+01            -4.878555E+01            -1.703781E+01             6.404094E+00             2.425483E+01             1.840599E+01             3.044794E+01
                  13.5000            -2.451954E+01            -4.884752E+01            -1.732104E+01             6.400683E+00             2.454822E+01             1.842580E+01             3.069406E+01
                  13.6800            -2.484546E+01            -4.891017E+01            -1.760415E+01             6.396872E+00             2.484104E+01             1.844703E+01             3.094140E+01
                  13.8600            -2.517138E+01            -4.897349E+01            -1.788714E+01             6.392661E+00             2.513327E+01             1.846970E+01             3.118992E+01
                  14.0400            -2.549729E+01            -4.903748E+01            -1.817001E+01             6.388052E+00             2.542489E+01             1.849382E+01             3.143957E+01
                  14.2200            -2.582318E+01            -4.910211E+01            -1.845274E+01             6.383047E+00             2.571591E+01             1.851939E+01             3.169031E+01
                  14.4000            -2.614903E+01            -4.916738E+01            -1.873534E+01             6.377650E+00             2.600630E+01             1.854641E+01             3.194209E+01
                  14.5800            -2.647484E+01            -4.923327E+01            -1.901780E+01             6.371864E+00             2.629606E+01             1.857490E+01             3.219487E+01
                  14.7600            -2.680059E+01            -4.929975E+01            -1.930010E+01             6.365692E+00             2.658518E+01             1.860484E+01             3.244860E+01
                  14.9400            -2.712626E+01            -4.936682E+01            -1.958225E+01             6.359140E+00             2.687364E+01             1.863623E+01             3.270323E+01
                  15.1200            -2.745185E+01            -4.943445E+01            -1.986423E+01             6.352212E+00             2.716144E+01             1.866906E+01             3.295873E+01
                  15.3000            -2.777733E+01            -4.950263E+01            -2.014603E+01             6.344914E+00             2.744858E+01             1.870333E+01             3.321504E+01
                  15.4800            -2.810269E+01            -4.957132E+01            -2.042764E+01             6.337253E+00             2.773503E+01             1.873901E+01             3.347211E+01
                  15.6600            -2.842791E+01            -4.964051E+01            -2.070907E+01             6.329234E+00             2.802080E+01             1.877609E+01             3.372991E+01
                  15.8400            -2.875298E+01            -4.971017E+01            -2.099029E+01             6.320864E+00             2.830588E+01             1.881455E+01             3.398838E+01
                  16.0200            -2.907787E+01            -4.978029E+01            -2.127129E+01             6.312152E+00             2.859025E+01             1.885437E+01             3.424748E+01
                  16.2000            -2.940258E+01            -4.985082E+01            -2.155208E+01             6.303104E+00             2.887392E+01             1.889552E+01             3.450716E+01
                  16.3800            -2.972707E+01            -4.992176E+01            -2.183263E+01             6.293728E+00             2.915688E+01             1.893797E+01             3.476738E+01
                  16.5600            -3.005133E+01            -4.999306E+01            -2.211293E+01             6.284034E+00             2.943912E+01             1.898170E+01             3.502809E+01
                  16.7400            -3.037534E+01            -5.006471E+01            -2.239299E+01             6.274030E+00             2.972064E+01             1.902667E+01             3.528924E+01
                  16.9200            -3.069909E+01            -5.013667E+01            -2.267278E+01             6.263724E+00             3.000143E+01             1.907284E+01             3.555079E+01
                  17.1000            -3.102254E+01            -5.020892E+01            -2.295229E+01             6.253126E+00             3.028149E+01             1.912018E+01             3.581270E+01
                  17.2800            -3.134568E+01            -5.028143E+01            -2.323152E+01             6.242245E+00             3.056081E+01             1.916864E+01             3.607492E+01
                  17.4600            -3.166848E+01            -5.035417E+01            -2.351045E+01             6.231091E+00             3.083939E+01             1.921820E+01             3.633741E+01
