                             Degree                         Volume[m3]                    I.Pressure[kPa]                   I.Temperature[K]                         I.Mass[kg]
                             0.0000                       5.000000E-08                       1.006658E+02                       3.051981E+02                       5.746848E-08
                             0.1800                       5.005066E-08                       1.006658E+02                       3.051981E+02                       5.752671E-08
                             0.3600                       5.009648E-08                       1.006658E+02                       3.051981E+02                       5.757937E-08
                             0.5400                       5.013763E-08                       1.006658E+02                       3.051981E+02                       5.762666E-08
                             0.7200                       5.017429E-08                       1.006658E+02                       3.051981E+02                       5.766881E-08
                             0.9000                       5.020665E-08                       1.006658E+02                       3.051981E+02                       5.770600E-08
                             1.0800                       5.023489E-08                       1.006658E+02                       3.051981E+02                       5.773846E-08
                             1.2600                       5.025918E-08                       1.006658E+02                       3.051981E+02                       5.776637E-08
                             1.4400                       5.027970E-08                       1.006658E+02                       3.051981E+02                       5.778996E-08
                             1.6200                       5.029663E-08                       1.006658E+02                       3.051981E+02                       5.780942E-08
                             1.8000                       5.031015E-08                       1.006658E+02                       3.051981E+02                       5.782496E-08
                             1.9800                       5.032045E-08                       1.006658E+02                       3.051981E+02                       5.783679E-08
                             2.1600                       5.032769E-08                       1.006658E+02                       3.051981E+02                       5.784512E-08
                             2.3400                       5.033207E-08                       1.006658E+02                       3.051981E+02                       5.785015E-08
                             2.5200                       5.033375E-08                       1.006658E+02                       3.051981E+02                       5.785208E-08
                             2.7000                       5.033292E-08                       1.006658E+02                       3.051981E+02                       5.785113E-08
                             2.8800                       5.032977E-08                       1.006658E+02                       3.051981E+02                       5.784751E-08
                             3.0600                       5.032446E-08                       1.006658E+02                       3.051981E+02                       5.784141E-08
                             3.2400                       5.031718E-08                       1.006658E+02                       3.051981E+02                       5.783304E-08
                             3.4200                       5.030811E-08                       1.006658E+02                       3.051981E+02                       5.782262E-08
                             3.6000                       5.029743E-08                       1.006658E+02                       3.051981E+02                       5.781034E-08
                             3.7800                       5.028532E-08                       1.006658E+02                       3.051981E+02                       5.779642E-08
                             3.9600                       5.027195E-08                       1.006658E+02                       3.051981E+02                       5.778105E-08
                             4.1400                       5.025752E-08                       1.006658E+02                       3.051981E+02                       5.776446E-08
                             4.3200                       5.024219E-08                       1.006658E+02                       3.051981E+02                       5.774684E-08
                             4.5000                       5.022615E-08                       1.006658E+02                       3.051981E+02                       5.772841E-08
                             4.6800                       5.020957E-08                       1.006658E+02                       3.051981E+02                       5.770936E-08
                             4.8600                       5.019265E-08                       1.006658E+02                       3.051981E+02                       5.768990E-08
                             5.0400                       5.017555E-08                       1.006658E+02                       3.051981E+02                       5.767025E-08
                             5.2200                       5.015845E-08                       1.006658E+02                       3.051981E+02                       5.765060E-08
                             5.4000                       5.014155E-08                       1.006658E+02                       3.051981E+02                       5.763117E-08
                             5.5800                       5.012501E-08                       1.006658E+02                       3.051981E+02                       5.761217E-08
                             5.7600                       5.010902E-08                       1.006658E+02                       3.051981E+02                       5.759378E-08
                             5.9400                       5.009376E-08                       1.006658E+02                       3.051981E+02                       5.757624E-08
                             6.1200                       5.007940E-08                       1.006658E+02                       3.051981E+02                       5.755974E-08
                             6.3000                       5.006612E-08                       1.006658E+02                       3.051981E+02                       5.754448E-08
                             6.4800                       5.005412E-08                       1.006658E+02                       3.051981E+02                       5.753068E-08
                             6.6600                       5.004355E-08                       1.006658E+02                       3.051981E+02                       5.751854E-08
                             6.8400                       5.003462E-08                       1.006658E+02                       3.051981E+02                       5.750827E-08
                             7.0200                       5.002748E-08                       1.006658E+02                       3.051981E+02                       5.750007E-08
                             7.2000                       5.002233E-08                       1.006658E+02                       3.051981E+02                       5.749415E-08
                             7.3800                       5.001935E-08                       1.006658E+02                       3.051981E+02                       5.749072E-08
                             7.5600                       5.001871E-08                       1.006658E+02                       3.051981E+02                       5.748998E-08
                             7.7400                       5.002059E-08                       1.006658E+02                       3.051981E+02                       5.749214E-08
                             7.9200                       5.002517E-08                       1.006658E+02                       3.051981E+02                       5.749741E-08
                             8.1000                       5.003263E-08                       1.006658E+02                       3.051981E+02                       5.750599E-08
                             8.2800                       5.004316E-08                       1.006658E+02                       3.051981E+02                       5.751809E-08
                             8.4600                       5.005692E-08                       1.006658E+02                       3.051981E+02                       5.753391E-08
                             8.6400                       5.007411E-08                       1.006658E+02                       3.051981E+02                       5.755366E-08
                             8.8200                       5.009489E-08                       1.006658E+02                       3.051981E+02                       5.757754E-08
                             9.0000                       5.011945E-08                       1.006658E+02                       3.051981E+02                       5.760577E-08
                             9.1800                       5.014796E-08                       1.006658E+02                       3.051981E+02                       5.763854E-08
                             9.3600                       5.018061E-08                       1.006658E+02                       3.051981E+02                       5.767607E-08
                             9.5400                       5.021757E-08                       1.006658E+02                       3.051981E+02                       5.771855E-08
                             9.7200                       5.025903E-08                       1.006658E+02                       3.051981E+02                       5.776620E-08
                             9.9000                       5.030516E-08                       1.006658E+02                       3.051981E+02                       5.781922E-08
                            10.0800                       5.035613E-08                       1.006658E+02                       3.051981E+02                       5.787781E-08
                            10.2600                       5.041214E-08                       1.006658E+02                       3.051981E+02                       5.794218E-08
                            10.4400                       5.047335E-08                       1.006658E+02                       3.051981E+02                       5.801253E-08
                            10.6200                       5.053994E-08                       1.006658E+02                       3.051981E+02                       5.808907E-08
                            10.8000                       5.061210E-08                       1.006658E+02                       3.051981E+02                       5.817201E-08
                            10.9800                       5.069000E-08                       1.006658E+02                       3.051981E+02                       5.826155E-08
                            11.1600                       5.077382E-08                       1.006658E+02                       3.051981E+02                       5.835789E-08
                            11.3400                       5.086374E-08                       1.006658E+02                       3.051981E+02                       5.846124E-08
                            11.5200                       5.095993E-08                       1.006658E+02                       3.051981E+02                       5.857180E-08
                            11.7000                       5.106258E-08                       1.006658E+02                       3.051981E+02                       5.868977E-08
                            11.8800                       5.117185E-08                       1.006658E+02                       3.051981E+02                       5.881537E-08
                            12.0600                       5.128793E-08                       1.006658E+02                       3.051981E+02                       5.894879E-08
                            12.2400                       5.141100E-08                       1.006658E+02                       3.051981E+02                       5.909024E-08
                            12.4200                       5.154123E-08                       1.006658E+02                       3.051981E+02                       5.923992E-08
                            12.6000                       5.167880E-08                       1.006658E+02                       3.051981E+02                       5.939804E-08
                            12.7800                       5.182389E-08                       1.006658E+02                       3.051981E+02                       5.956480E-08
                            12.9600                       5.197667E-08                       1.006658E+02                       3.051981E+02                       5.974040E-08
                            13.1400                       5.213732E-08                       1.006658E+02                       3.051981E+02                       5.992505E-08
                            13.3200                       5.230601E-08                       1.006658E+02                       3.051981E+02                       6.011894E-08
                            13.5000                       5.248293E-08                       1.006658E+02                       3.051981E+02                       6.032229E-08
                            13.6800                       5.266825E-08                       1.006658E+02                       3.051981E+02                       6.053529E-08
                            13.8600                       5.286215E-08                       1.006658E+02                       3.051981E+02                       6.075814E-08
                            14.0400                       5.306479E-08                       1.006658E+02                       3.051981E+02                       6.099106E-08
                            14.2200                       5.327637E-08                       1.006658E+02                       3.051981E+02                       6.123424E-08
                            14.4000                       5.349705E-08                       1.006658E+02                       3.051981E+02                       6.148788E-08
                            14.5800                       5.372700E-08                       1.006658E+02                       3.051981E+02                       6.175219E-08
                            14.7600                       5.396642E-08                       1.006658E+02                       3.051981E+02                       6.202736E-08
                            14.9400                       5.421546E-08                       1.006658E+02                       3.051981E+02                       6.231360E-08
                            15.1200                       5.447431E-08                       1.006658E+02                       3.051981E+02                       6.261111E-08
                            15.3000                       5.474313E-08                       1.006658E+02                       3.051981E+02                       6.292009E-08
                            15.4800                       5.502212E-08                       1.006658E+02                       3.051981E+02                       6.324075E-08
                            15.6600                       5.531143E-08                       1.006658E+02                       3.051981E+02                       6.357327E-08
                            15.8400                       5.561124E-08                       1.006658E+02                       3.051981E+02                       6.391787E-08
                            16.0200                       5.592174E-08                       1.006658E+02                       3.051981E+02                       6.427475E-08
                            16.2000                       5.624309E-08                       1.006658E+02                       3.051981E+02                       6.464409E-08
                            16.3800                       5.657546E-08                       1.006658E+02                       3.051981E+02                       6.502612E-08
                            16.5600                       5.691904E-08                       1.006658E+02                       3.051981E+02                       6.542101E-08
                            16.7400                       5.727398E-08                       1.006658E+02                       3.051981E+02                       6.582898E-08
                            16.9200                       5.764048E-08                       1.006658E+02                       3.051981E+02                       6.625022E-08
                            17.1000                       5.801870E-08                       1.006658E+02                       3.051981E+02                       6.668493E-08
                            17.2800                       5.840881E-08                       1.006658E+02                       3.051981E+02                       6.713331E-08
                            17.4600                       5.881099E-08                       1.006658E+02                       3.051981E+02                       6.759556E-08
                            17.6400                       5.922540E-08                       1.006658E+02                       3.051981E+02                       6.807188E-08
                            17.8200                       5.965223E-08                       1.006658E+02                       3.051981E+02                       6.856246E-08
                            18.0000                       6.009165E-08                       1.006658E+02                       3.051981E+02                       6.906751E-08
                            18.1800                       6.054382E-08                       1.006658E+02                       3.051981E+02                       6.958722E-08
                            18.3600                       6.100891E-08                       1.006658E+02                       3.051981E+02                       7.012179E-08
                            18.5400                       6.148711E-08                       1.006658E+02                       3.051981E+02                       7.067142E-08
                            18.7200                       6.197858E-08                       1.006658E+02                       3.051981E+02                       7.123630E-08
                            18.9000                       6.248349E-08                       1.006658E+02                       3.051981E+02                       7.181663E-08
                            19.0800                       6.300202E-08                       1.006658E+02                       3.051981E+02                       7.241261E-08
                            19.2600                       6.353433E-08                       1.006658E+02                       3.051981E+02                       7.302443E-08
                            19.4400                       6.408059E-08                       1.006658E+02                       3.051981E+02                       7.365229E-08
                            19.6200                       6.464098E-08                       1.006658E+02                       3.051981E+02                       7.429638E-08
                            19.8000                       6.521567E-08                       1.006658E+02                       3.051981E+02                       7.495691E-08
                            19.9800                       6.580482E-08                       1.006658E+02                       3.051981E+02                       7.563406E-08
