                   Degree              F_vhoc_n[N]              F_vhoc_t[N]                 F_1_n[N]                 F_2_n[N]                  F_cx[N]                  F_cy[N]           F_resultant[N]
                   0.0000            -9.172538E-01            -4.865201E+01             3.930933E+00             5.284704E+00             1.353771E+00             1.995898E+01             2.000484E+01
                   0.1800            -2.464568E+00            -4.991303E+01             2.715221E+00             4.829240E+00             2.121016E+00             2.064707E+01             2.075573E+01
                   0.3600            -3.181082E+00            -4.997604E+01             2.051039E+00             4.821746E+00             2.784734E+00             2.073890E+01             2.092502E+01
                   0.5400            -3.896933E+00            -5.003982E+01             1.387443E+00             4.815199E+00             3.448841E+00             2.083156E+01             2.111512E+01
                   0.7200            -4.612173E+00            -5.010454E+01             7.244208E-01             4.809521E+00             4.113270E+00             2.092508E+01             2.132552E+01
                   0.9000            -5.326711E+00            -5.017029E+01             6.208334E-02             4.804655E+00             4.777845E+00             2.101941E+01             2.155559E+01
                   1.0800            -6.040575E+00            -5.023714E+01            -5.995812E-01             4.800564E+00             5.442540E+00             2.111455E+01             2.180472E+01
                   1.2600            -6.753915E+00            -5.030515E+01            -1.260708E+00             4.797222E+00             6.107461E+00             2.121048E+01             2.207228E+01
                   1.4400            -7.466648E+00            -5.037434E+01            -1.921215E+00             4.794610E+00             6.772500E+00             2.130714E+01             2.235757E+01
                   1.6200            -8.178796E+00            -5.044471E+01            -2.581117E+00             4.792712E+00             7.437659E+00             2.140449E+01             2.265990E+01
                   1.8000            -8.890321E+00            -5.051627E+01            -3.240380E+00             4.791517E+00             8.102886E+00             2.150248E+01             2.297854E+01
                   1.9800            -9.601287E+00            -5.058902E+01            -3.899066E+00             4.791017E+00             8.768237E+00             2.160105E+01             2.331281E+01
                   2.1600            -1.031163E+01            -5.066295E+01            -4.557113E+00             4.791204E+00             9.433637E+00             2.170015E+01             2.366199E+01
                   2.3400            -1.102137E+01            -5.073805E+01            -5.214547E+00             4.792073E+00             1.009911E+01             2.179972E+01             2.402540E+01
                   2.5200            -1.173048E+01            -5.081432E+01            -5.871341E+00             4.793617E+00             1.076461E+01             2.189971E+01             2.440234E+01
                   2.7000            -1.243895E+01            -5.089173E+01            -6.527486E+00             4.795831E+00             1.143013E+01             2.200006E+01             2.479214E+01
                   2.8800            -1.314677E+01            -5.097029E+01            -7.182986E+00             4.798711E+00             1.209567E+01             2.210070E+01             2.519417E+01
                   3.0600            -1.385392E+01            -5.104997E+01            -7.837813E+00             4.802251E+00             1.276120E+01             2.220157E+01             2.560777E+01
                   3.2400            -1.456040E+01            -5.113076E+01            -8.491972E+00             4.806448E+00             1.342671E+01             2.230263E+01             2.603236E+01
                   3.4200            -1.526619E+01            -5.121265E+01            -9.145456E+00             4.811298E+00             1.409220E+01             2.240380E+01             2.646735E+01
                   3.6000            -1.597128E+01            -5.129563E+01            -9.798252E+00             4.816794E+00             1.475764E+01             2.250504E+01             2.691216E+01
                   3.7800            -1.667566E+01            -5.137968E+01            -1.045035E+01             4.822934E+00             1.542302E+01             2.260626E+01             2.736627E+01
                   3.9600            -1.737931E+01            -5.146479E+01            -1.110174E+01             4.829711E+00             1.608834E+01             2.270743E+01             2.782916E+01
                   4.1400            -1.808222E+01            -5.155093E+01            -1.175242E+01             4.837121E+00             1.675358E+01             2.280848E+01             2.830034E+01
                   4.3200            -1.878439E+01            -5.163810E+01            -1.240238E+01             4.845157E+00             1.741873E+01             2.290934E+01             2.877933E+01
                   4.5000            -1.948579E+01            -5.172627E+01            -1.305160E+01             4.853814E+00             1.808377E+01             2.300996E+01             2.926569E+01
                   4.6800            -2.018643E+01            -5.181543E+01            -1.370010E+01             4.863082E+00             1.874870E+01             2.311027E+01             2.975901E+01
                   4.8600            -2.088628E+01            -5.190556E+01            -1.434785E+01             4.872954E+00             1.941350E+01             2.321023E+01             3.025886E+01
                   5.0400            -2.158535E+01            -5.199662E+01            -1.499486E+01             4.883416E+00             2.007816E+01             2.330977E+01             3.076488E+01
                   5.2200            -2.228362E+01            -5.208859E+01            -1.564112E+01             4.894454E+00             2.074266E+01             2.340883E+01             3.127669E+01
                   5.4000            -2.298110E+01            -5.218143E+01            -1.628665E+01             4.906045E+00             2.140700E+01             2.350737E+01             3.179396E+01
                   5.5800            -2.367780E+01            -5.227508E+01            -1.693144E+01             4.918157E+00             2.207114E+01             2.360533E+01             3.231636E+01
                   5.7600            -2.437375E+01            -5.236948E+01            -1.757553E+01             4.930741E+00             2.273507E+01             2.370269E+01             3.284358E+01
                   5.9400            -2.506897E+01            -5.246450E+01            -1.821895E+01             4.943714E+00             2.339875E+01             2.379941E+01             3.337534E+01
                   6.1200            -2.576357E+01            -5.255995E+01            -1.886180E+01             4.956941E+00             2.406212E+01             2.389551E+01             3.391137E+01
                   6.3000            -2.645766E+01            -5.265561E+01            -1.950417E+01             4.970250E+00             2.472512E+01             2.399103E+01             3.445143E+01
                   6.4800            -2.715131E+01            -5.275128E+01            -2.014616E+01             4.983515E+00             2.538769E+01             2.408601E+01             3.499529E+01
                   6.6600            -2.784455E+01            -5.284689E+01            -2.078777E+01             4.996686E+00             2.604980E+01             2.418044E+01             3.554274E+01
                   6.8400            -2.853737E+01            -5.294242E+01            -2.142902E+01             5.009747E+00             2.671144E+01             2.427433E+01             3.609355E+01
                   7.0200            -2.922975E+01            -5.303785E+01            -2.206989E+01             5.022697E+00             2.737259E+01             2.436767E+01             3.664754E+01
                   7.2000            -2.992167E+01            -5.313318E+01            -2.271036E+01             5.035535E+00             2.803325E+01             2.446043E+01             3.720451E+01
                   7.3800            -3.061312E+01            -5.322839E+01            -2.335043E+01             5.048259E+00             2.869339E+01             2.455261E+01             3.776429E+01
                   7.5600            -3.130408E+01            -5.332347E+01            -2.399009E+01             5.060871E+00             2.935302E+01             2.464420E+01             3.832670E+01
                   7.7400            -3.199453E+01            -5.341842E+01            -2.462932E+01             5.073369E+00             3.001211E+01             2.473517E+01             3.889158E+01
                   7.9200            -3.268445E+01            -5.351322E+01            -2.526812E+01             5.085754E+00             3.067066E+01             2.482552E+01             3.945879E+01
                   8.1000            -3.337383E+01            -5.360786E+01            -2.590647E+01             5.098026E+00             3.132865E+01             2.491523E+01             4.002815E+01
                   8.2800            -3.406264E+01            -5.370234E+01            -2.654436E+01             5.110184E+00             3.198608E+01             2.500428E+01             4.059955E+01
                   8.4600            -3.475086E+01            -5.379665E+01            -2.718178E+01             5.122229E+00             3.264294E+01             2.509265E+01             4.117284E+01
                   8.6400            -3.543849E+01            -5.389077E+01            -2.781871E+01             5.134160E+00             3.329920E+01             2.518034E+01             4.174789E+01
                   8.8200            -3.612549E+01            -5.398471E+01            -2.845515E+01             5.145976E+00             3.395487E+01             2.526733E+01             4.232459E+01
                   9.0000            -3.681186E+01            -5.407844E+01            -2.909109E+01             5.157679E+00             3.460993E+01             2.535359E+01             4.290282E+01
                   9.1800            -3.749757E+01            -5.417196E+01            -2.972651E+01             5.169267E+00             3.526438E+01             2.543911E+01             4.348247E+01
                   9.3600            -3.818261E+01            -5.426527E+01            -3.036140E+01             5.180740E+00             3.591819E+01             2.552388E+01             4.406342E+01
                   9.5400            -3.886696E+01            -5.435835E+01            -3.099575E+01             5.192098E+00             3.657137E+01             2.560787E+01             4.464559E+01
                   9.7200            -3.955060E+01            -5.445120E+01            -3.162956E+01             5.203340E+00             3.722390E+01             2.569108E+01             4.522886E+01
                   9.9000            -4.023351E+01            -5.454380E+01            -3.226280E+01             5.214467E+00             3.787577E+01             2.577348E+01             4.581316E+01
                  10.0800            -4.091569E+01            -5.463616E+01            -3.289547E+01             5.225476E+00             3.852697E+01             2.585505E+01             4.639839E+01
                  10.2600            -4.159710E+01            -5.472826E+01            -3.352756E+01             5.236369E+00             3.917749E+01             2.593578E+01             4.698447E+01
                  10.4400            -4.227773E+01            -5.482010E+01            -3.415906E+01             5.247143E+00             3.982733E+01             2.601565E+01             4.757132E+01
                  10.6200            -4.295757E+01            -5.491167E+01            -3.478995E+01             5.257799E+00             4.047646E+01             2.609465E+01             4.815885E+01
                  10.8000            -4.363660E+01            -5.500297E+01            -3.542022E+01             5.268335E+00             4.112489E+01             2.617276E+01             4.874700E+01
                  10.9800            -4.431480E+01            -5.509398E+01            -3.604988E+01             5.278749E+00             4.177261E+01             2.624995E+01             4.933569E+01
                  11.1600            -4.499216E+01            -5.518471E+01            -3.667890E+01             5.289042E+00             4.241959E+01             2.632623E+01             4.992486E+01
                  11.3400            -4.566866E+01            -5.527515E+01            -3.730727E+01             5.299211E+00             4.306584E+01             2.640156E+01             5.051444E+01
                  11.5200            -4.634429E+01            -5.536529E+01            -3.793499E+01             5.309255E+00             4.371135E+01             2.647594E+01             5.110438E+01
                  11.7000            -4.701903E+01            -5.545513E+01            -3.856204E+01             5.319173E+00             4.435610E+01             2.654934E+01             5.169460E+01
                  11.8800            -4.769286E+01            -5.554467E+01            -3.918842E+01             5.328962E+00             4.500009E+01             2.662176E+01             5.228505E+01
                  12.0600            -4.836577E+01            -5.563391E+01            -3.981411E+01             5.338621E+00             4.564331E+01             2.669319E+01             5.287568E+01
                  12.2400            -4.903775E+01            -5.572283E+01            -4.043911E+01             5.348147E+00             4.628574E+01             2.676360E+01             5.346644E+01
                  12.4200            -4.970879E+01            -5.581145E+01            -4.106341E+01             5.357539E+00             4.692739E+01             2.683299E+01             5.405727E+01
                  12.6000            -5.037886E+01            -5.589975E+01            -4.168699E+01             5.366793E+00             4.756823E+01             2.690134E+01             5.464813E+01
                  12.7800            -5.104795E+01            -5.598774E+01            -4.230986E+01             5.375908E+00             4.820826E+01             2.696864E+01             5.523898E+01
                  12.9600            -5.171606E+01            -5.607541E+01            -4.293199E+01             5.384879E+00             4.884748E+01             2.703490E+01             5.582976E+01
                  13.1400            -5.238317E+01            -5.616278E+01            -4.355338E+01             5.393705E+00             4.948587E+01             2.710008E+01             5.642044E+01
                  13.3200            -5.304926E+01            -5.624983E+01            -4.417403E+01             5.402382E+00             5.012342E+01             2.716419E+01             5.701097E+01
                  13.5000            -5.371433E+01            -5.633656E+01            -4.479392E+01             5.410906E+00             5.076013E+01             2.722723E+01             5.760133E+01
                  13.6800            -5.437836E+01            -5.642299E+01            -4.541305E+01             5.419274E+00             5.139599E+01             2.728917E+01             5.819146E+01
                  13.8600            -5.504134E+01            -5.650911E+01            -4.603141E+01             5.427483E+00             5.203097E+01             2.735003E+01             5.878134E+01
                  14.0400            -5.570326E+01            -5.659492E+01            -4.664899E+01             5.435527E+00             5.266509E+01             2.740979E+01             5.937094E+01
                  14.2200            -5.636411E+01            -5.668044E+01            -4.726578E+01             5.443402E+00             5.329832E+01             2.746845E+01             5.996021E+01
                  14.4000            -5.702388E+01            -5.676565E+01            -4.788178E+01             5.451106E+00             5.393066E+01             2.752601E+01             6.054913E+01
                  14.5800            -5.768256E+01            -5.685057E+01            -4.849697E+01             5.458631E+00             5.456210E+01             2.758247E+01             6.113768E+01
                  14.7600            -5.834014E+01            -5.693521E+01            -4.911136E+01             5.465975E+00             5.519263E+01             2.763783E+01             6.172581E+01
                  14.9400            -5.899661E+01            -5.701956E+01            -4.972493E+01             5.473131E+00             5.582223E+01             2.769209E+01             6.231351E+01
                  15.1200            -5.965197E+01            -5.710363E+01            -5.033768E+01             5.480095E+00             5.645091E+01             2.774526E+01             6.290075E+01
                  15.3000            -6.030619E+01            -5.718743E+01            -5.094961E+01             5.486862E+00             5.707864E+01             2.779734E+01             6.348751E+01
                  15.4800            -6.095928E+01            -5.727097E+01            -5.156069E+01             5.493425E+00             5.770543E+01             2.784833E+01             6.407375E+01
                  15.6600            -6.161123E+01            -5.735425E+01            -5.217094E+01             5.499779E+00             5.833125E+01             2.789824E+01             6.465947E+01
                  15.8400            -6.226202E+01            -5.743729E+01            -5.278034E+01             5.505918E+00             5.895610E+01             2.794708E+01             6.524462E+01
                  16.0200            -6.291166E+01            -5.752008E+01            -5.338888E+01             5.511836E+00             5.957997E+01             2.799485E+01             6.582921E+01
                  16.2000            -6.356013E+01            -5.760264E+01            -5.399657E+01             5.517528E+00             6.020285E+01             2.804158E+01             6.641320E+01
                  16.3800            -6.420743E+01            -5.768497E+01            -5.460339E+01             5.522986E+00             6.082472E+01             2.808726E+01             6.699658E+01
                  16.5600            -6.485354E+01            -5.776709E+01            -5.520934E+01             5.528205E+00             6.144559E+01             2.813191E+01             6.757932E+01
                  16.7400            -6.549848E+01            -5.784900E+01            -5.581442E+01             5.533177E+00             6.206542E+01             2.817554E+01             6.816141E+01
                  16.9200            -6.614222E+01            -5.793072E+01            -5.641861E+01             5.537897E+00             6.268423E+01             2.821817E+01             6.874284E+01
                  17.1000            -6.678476E+01            -5.801225E+01            -5.702192E+01             5.542358E+00             6.330198E+01             2.825981E+01             6.932358E+01
                  17.2800            -6.742610E+01            -5.809360E+01            -5.762434E+01             5.546553E+00             6.391868E+01             2.830048E+01             6.990361E+01
                  17.4600            -6.806623E+01            -5.817478E+01            -5.822586E+01             5.550475E+00             6.453431E+01             2.834020E+01             7.048294E+01
