                             Degree                         Volume[m3]                    I.Pressure[kPa]                   I.Temperature[K]                         I.Mass[kg]
                             0.0000                       5.000000E-08                       1.006220E+02                       3.051723E+02                       5.744830E-08
                             0.1800                       5.005066E-08                       1.006220E+02                       3.051723E+02                       5.750651E-08
                             0.3600                       5.009648E-08                       1.006220E+02                       3.051723E+02                       5.755915E-08
                             0.5400                       5.013763E-08                       1.006220E+02                       3.051723E+02                       5.760643E-08
                             0.7200                       5.017429E-08                       1.006220E+02                       3.051723E+02                       5.764856E-08
                             0.9000                       5.020665E-08                       1.006220E+02                       3.051723E+02                       5.768574E-08
                             1.0800                       5.023489E-08                       1.006220E+02                       3.051723E+02                       5.771818E-08
                             1.2600                       5.025918E-08                       1.006220E+02                       3.051723E+02                       5.774609E-08
                             1.4400                       5.027970E-08                       1.006220E+02                       3.051723E+02                       5.776967E-08
                             1.6200                       5.029663E-08                       1.006220E+02                       3.051723E+02                       5.778912E-08
                             1.8000                       5.031015E-08                       1.006220E+02                       3.051723E+02                       5.780466E-08
                             1.9800                       5.032045E-08                       1.006220E+02                       3.051723E+02                       5.781648E-08
                             2.1600                       5.032769E-08                       1.006220E+02                       3.051723E+02                       5.782481E-08
                             2.3400                       5.033207E-08                       1.006220E+02                       3.051723E+02                       5.782983E-08
                             2.5200                       5.033375E-08                       1.006220E+02                       3.051723E+02                       5.783177E-08
                             2.7000                       5.033292E-08                       1.006220E+02                       3.051723E+02                       5.783082E-08
                             2.8800                       5.032977E-08                       1.006220E+02                       3.051723E+02                       5.782720E-08
                             3.0600                       5.032446E-08                       1.006220E+02                       3.051723E+02                       5.782110E-08
                             3.2400                       5.031718E-08                       1.006220E+02                       3.051723E+02                       5.781273E-08
                             3.4200                       5.030811E-08                       1.006220E+02                       3.051723E+02                       5.780231E-08
                             3.6000                       5.029743E-08                       1.006220E+02                       3.051723E+02                       5.779004E-08
                             3.7800                       5.028532E-08                       1.006220E+02                       3.051723E+02                       5.777612E-08
                             3.9600                       5.027195E-08                       1.006220E+02                       3.051723E+02                       5.776077E-08
                             4.1400                       5.025752E-08                       1.006220E+02                       3.051723E+02                       5.774418E-08
                             4.3200                       5.024219E-08                       1.006220E+02                       3.051723E+02                       5.772657E-08
                             4.5000                       5.022615E-08                       1.006220E+02                       3.051723E+02                       5.770814E-08
                             4.6800                       5.020957E-08                       1.006220E+02                       3.051723E+02                       5.768909E-08
                             4.8600                       5.019265E-08                       1.006220E+02                       3.051723E+02                       5.766965E-08
                             5.0400                       5.017555E-08                       1.006220E+02                       3.051723E+02                       5.765000E-08
                             5.2200                       5.015845E-08                       1.006220E+02                       3.051723E+02                       5.763036E-08
                             5.4000                       5.014155E-08                       1.006220E+02                       3.051723E+02                       5.761094E-08
                             5.5800                       5.012501E-08                       1.006220E+02                       3.051723E+02                       5.759194E-08
                             5.7600                       5.010902E-08                       1.006220E+02                       3.051723E+02                       5.757356E-08
                             5.9400                       5.009376E-08                       1.006220E+02                       3.051723E+02                       5.755602E-08
                             6.1200                       5.007940E-08                       1.006220E+02                       3.051723E+02                       5.753953E-08
                             6.3000                       5.006612E-08                       1.006220E+02                       3.051723E+02                       5.752428E-08
                             6.4800                       5.005412E-08                       1.006220E+02                       3.051723E+02                       5.751048E-08
                             6.6600                       5.004355E-08                       1.006220E+02                       3.051723E+02                       5.749834E-08
                             6.8400                       5.003462E-08                       1.006220E+02                       3.051723E+02                       5.748808E-08
                             7.0200                       5.002748E-08                       1.006220E+02                       3.051723E+02                       5.747988E-08
                             7.2000                       5.002233E-08                       1.006220E+02                       3.051723E+02                       5.747396E-08
                             7.3800                       5.001935E-08                       1.006220E+02                       3.051723E+02                       5.747053E-08
                             7.5600                       5.001871E-08                       1.006220E+02                       3.051723E+02                       5.746980E-08
                             7.7400                       5.002059E-08                       1.006220E+02                       3.051723E+02                       5.747196E-08
                             7.9200                       5.002517E-08                       1.006220E+02                       3.051723E+02                       5.747722E-08
                             8.1000                       5.003263E-08                       1.006220E+02                       3.051723E+02                       5.748580E-08
                             8.2800                       5.004316E-08                       1.006220E+02                       3.051723E+02                       5.749789E-08
                             8.4600                       5.005692E-08                       1.006220E+02                       3.051723E+02                       5.751371E-08
                             8.6400                       5.007411E-08                       1.006220E+02                       3.051723E+02                       5.753345E-08
                             8.8200                       5.009489E-08                       1.006220E+02                       3.051723E+02                       5.755733E-08
                             9.0000                       5.011945E-08                       1.006220E+02                       3.051723E+02                       5.758554E-08
                             9.1800                       5.014796E-08                       1.006220E+02                       3.051723E+02                       5.761830E-08
                             9.3600                       5.018061E-08                       1.006220E+02                       3.051723E+02                       5.765582E-08
                             9.5400                       5.021757E-08                       1.006220E+02                       3.051723E+02                       5.769829E-08
                             9.7200                       5.025903E-08                       1.006220E+02                       3.051723E+02                       5.774592E-08
                             9.9000                       5.030516E-08                       1.006220E+02                       3.051723E+02                       5.779892E-08
                            10.0800                       5.035613E-08                       1.006220E+02                       3.051723E+02                       5.785749E-08
                            10.2600                       5.041214E-08                       1.006220E+02                       3.051723E+02                       5.792183E-08
                            10.4400                       5.047335E-08                       1.006220E+02                       3.051723E+02                       5.799216E-08
                            10.6200                       5.053994E-08                       1.006220E+02                       3.051723E+02                       5.806868E-08
                            10.8000                       5.061210E-08                       1.006220E+02                       3.051723E+02                       5.815159E-08
                            10.9800                       5.069000E-08                       1.006220E+02                       3.051723E+02                       5.824109E-08
                            11.1600                       5.077382E-08                       1.006220E+02                       3.051723E+02                       5.833740E-08
                            11.3400                       5.086374E-08                       1.006220E+02                       3.051723E+02                       5.844071E-08
                            11.5200                       5.095993E-08                       1.006220E+02                       3.051723E+02                       5.855123E-08
                            11.7000                       5.106258E-08                       1.006220E+02                       3.051723E+02                       5.866917E-08
                            11.8800                       5.117185E-08                       1.006220E+02                       3.051723E+02                       5.879472E-08
                            12.0600                       5.128793E-08                       1.006220E+02                       3.051723E+02                       5.892809E-08
                            12.2400                       5.141100E-08                       1.006220E+02                       3.051723E+02                       5.906949E-08
                            12.4200                       5.154123E-08                       1.006220E+02                       3.051723E+02                       5.921912E-08
                            12.6000                       5.167880E-08                       1.006220E+02                       3.051723E+02                       5.937719E-08
                            12.7800                       5.182389E-08                       1.006220E+02                       3.051723E+02                       5.954389E-08
                            12.9600                       5.197667E-08                       1.006220E+02                       3.051723E+02                       5.971942E-08
                            13.1400                       5.213732E-08                       1.006220E+02                       3.051723E+02                       5.990401E-08
                            13.3200                       5.230601E-08                       1.006220E+02                       3.051723E+02                       6.009783E-08
                            13.5000                       5.248293E-08                       1.006220E+02                       3.051723E+02                       6.030111E-08
                            13.6800                       5.266825E-08                       1.006220E+02                       3.051723E+02                       6.051403E-08
                            13.8600                       5.286215E-08                       1.006220E+02                       3.051723E+02                       6.073681E-08
                            14.0400                       5.306479E-08                       1.006220E+02                       3.051723E+02                       6.096965E-08
                            14.2200                       5.327637E-08                       1.006220E+02                       3.051723E+02                       6.121274E-08
                            14.4000                       5.349705E-08                       1.006220E+02                       3.051723E+02                       6.146629E-08
                            14.5800                       5.372700E-08                       1.006220E+02                       3.051723E+02                       6.173050E-08
                            14.7600                       5.396642E-08                       1.006220E+02                       3.051723E+02                       6.200558E-08
                            14.9400                       5.421546E-08                       1.006220E+02                       3.051723E+02                       6.229172E-08
                            15.1200                       5.447431E-08                       1.006220E+02                       3.051723E+02                       6.258913E-08
                            15.3000                       5.474313E-08                       1.006220E+02                       3.051723E+02                       6.289800E-08
                            15.4800                       5.502212E-08                       1.006220E+02                       3.051723E+02                       6.321854E-08
                            15.6600                       5.531143E-08                       1.006220E+02                       3.051723E+02                       6.355095E-08
                            15.8400                       5.561124E-08                       1.006220E+02                       3.051723E+02                       6.389543E-08
                            16.0200                       5.592174E-08                       1.006220E+02                       3.051723E+02                       6.425218E-08
                            16.2000                       5.624309E-08                       1.006220E+02                       3.051723E+02                       6.462140E-08
                            16.3800                       5.657546E-08                       1.006220E+02                       3.051723E+02                       6.500328E-08
                            16.5600                       5.691904E-08                       1.006220E+02                       3.051723E+02                       6.539804E-08
                            16.7400                       5.727398E-08                       1.006220E+02                       3.051723E+02                       6.580586E-08
                            16.9200                       5.764048E-08                       1.006220E+02                       3.051723E+02                       6.622696E-08
                            17.1000                       5.801870E-08                       1.006220E+02                       3.051723E+02                       6.666151E-08
                            17.2800                       5.840881E-08                       1.006220E+02                       3.051723E+02                       6.710974E-08
                            17.4600                       5.881099E-08                       1.006220E+02                       3.051723E+02                       6.757183E-08
                            17.6400                       5.922540E-08                       1.006220E+02                       3.051723E+02                       6.804798E-08
                            17.8200                       5.965223E-08                       1.006220E+02                       3.051723E+02                       6.853839E-08
                            18.0000                       6.009165E-08                       1.006220E+02                       3.051723E+02                       6.904326E-08
                            18.1800                       6.054382E-08                       1.006220E+02                       3.051723E+02                       6.956279E-08
                            18.3600                       6.100891E-08                       1.006220E+02                       3.051723E+02                       7.009717E-08
                            18.5400                       6.148711E-08                       1.006220E+02                       3.051723E+02                       7.064660E-08
                            18.7200                       6.197858E-08                       1.006220E+02                       3.051723E+02                       7.121129E-08
                            18.9000                       6.248349E-08                       1.006220E+02                       3.051723E+02                       7.179141E-08
                            19.0800                       6.300202E-08                       1.006220E+02                       3.051723E+02                       7.238718E-08
                            19.2600                       6.353433E-08                       1.006220E+02                       3.051723E+02                       7.299879E-08
                            19.4400                       6.408059E-08                       1.006220E+02                       3.051723E+02                       7.362643E-08
                            19.6200                       6.464098E-08                       1.006220E+02                       3.051723E+02                       7.427030E-08
                            19.8000                       6.521567E-08                       1.006220E+02                       3.051723E+02                       7.493059E-08
                            19.9800                       6.580482E-08                       1.006220E+02                       3.051723E+02                       7.560751E-08
