                   Degree              F_vhoc_n[N]              F_vhoc_t[N]                 F_1_n[N]                 F_2_n[N]                  F_cx[N]                  F_cy[N]           F_resultant[N]
                   0.0000            -1.179905E+00            -4.856087E+01             3.700155E+00             5.129514E+00             1.429359E+00             1.995331E+01             2.000444E+01
                   0.1800            -1.927628E-01            -4.573228E+01             4.062721E+00             6.216647E+00             2.160311E+00             1.857618E+01             1.870137E+01
                   0.3600            -5.335649E-01            -4.572205E+01             3.758855E+00             6.203628E+00             2.457683E+00             1.855378E+01             1.871585E+01
                   0.5400            -8.796145E-01            -4.572789E+01             3.452715E+00             6.187416E+00             2.754276E+00             1.853978E+01             1.874325E+01
                   0.7200            -1.226640E+00            -4.574137E+01             3.146608E+00             6.171267E+00             3.051037E+00             1.853005E+01             1.877955E+01
                   0.9000            -1.572828E+00            -4.575900E+01             2.841536E+00             6.156512E+00             3.348292E+00             1.852272E+01             1.882292E+01
                   1.0800            -1.917557E+00            -4.577955E+01             2.537832E+00             6.143618E+00             3.646171E+00             1.851701E+01             1.887258E+01
                   1.2600            -2.260633E+00            -4.580249E+01             2.235576E+00             6.132772E+00             3.944781E+00             1.851249E+01             1.892812E+01
                   1.4400            -2.601929E+00            -4.582765E+01             1.934853E+00             6.124034E+00             4.244094E+00             1.850889E+01             1.898925E+01
                   1.6200            -2.941444E+00            -4.585497E+01             1.635662E+00             6.117405E+00             4.544115E+00             1.850604E+01             1.905578E+01
                   1.8000            -3.279160E+00            -4.588444E+01             1.338019E+00             6.112883E+00             4.844825E+00             1.850376E+01             1.912751E+01
                   1.9800            -3.615118E+00            -4.591607E+01             1.041891E+00             6.110455E+00             5.146248E+00             1.850190E+01             1.920427E+01
                   2.1600            -3.949305E+00            -4.594986E+01             7.472977E-01             6.110106E+00             5.448351E+00             1.850030E+01             1.928589E+01
                   2.3400            -4.281751E+00            -4.598582E+01             4.542167E-01             6.111818E+00             5.751142E+00             1.849882E+01             1.937220E+01
                   2.5200            -4.612467E+00            -4.602397E+01             1.626473E-01             6.115571E+00             6.054608E+00             1.849732E+01             1.946302E+01
                   2.7000            -4.941481E+00            -4.606429E+01            -1.274290E-01             6.121330E+00             6.358735E+00             1.849565E+01             1.955818E+01
                   2.8800            -5.269108E+00            -4.610630E+01            -4.162865E-01             6.128704E+00             6.663412E+00             1.849366E+01             1.965748E+01
                   3.0600            -5.596389E+00            -4.614825E+01            -7.048503E-01             6.136357E+00             6.968213E+00             1.849126E+01             1.976063E+01
                   3.2400            -5.923468E+00            -4.618994E+01            -9.932445E-01             6.144112E+00             7.273087E+00             1.848843E+01             1.986756E+01
                   3.4200            -6.250350E+00            -4.623140E+01            -1.281474E+00             6.151957E+00             7.578026E+00             1.848519E+01             1.997821E+01
                   3.6000            -6.577039E+00            -4.627265E+01            -1.569537E+00             6.159883E+00             7.883018E+00             1.848155E+01             2.009253E+01
                   3.7800            -6.903537E+00            -4.631371E+01            -1.857435E+00             6.167878E+00             8.188055E+00             1.847751E+01             2.021045E+01
                   3.9600            -7.229855E+00            -4.635461E+01            -2.145173E+00             6.175933E+00             8.493132E+00             1.847308E+01             2.033194E+01
                   4.1400            -7.555991E+00            -4.639536E+01            -2.432750E+00             6.184038E+00             8.798237E+00             1.846827E+01             2.045693E+01
                   4.3200            -7.881957E+00            -4.643599E+01            -2.720170E+00             6.192181E+00             9.103364E+00             1.846310E+01             2.058536E+01
                   4.5000            -8.207753E+00            -4.647652E+01            -3.007433E+00             6.200352E+00             9.408503E+00             1.845757E+01             2.071719E+01
                   4.6800            -8.533387E+00            -4.651698E+01            -3.294543E+00             6.208540E+00             9.713646E+00             1.845172E+01             2.085236E+01
                   4.8600            -8.858865E+00            -4.655738E+01            -3.581502E+00             6.216735E+00             1.001879E+01             1.844555E+01             2.099081E+01
                   5.0400            -9.184193E+00            -4.659775E+01            -3.868312E+00             6.224927E+00             1.032391E+01             1.843908E+01             2.113250E+01
                   5.2200            -9.509375E+00            -4.663811E+01            -4.154974E+00             6.233104E+00             1.062902E+01             1.843232E+01             2.127737E+01
                   5.4000            -9.834419E+00            -4.667849E+01            -4.441493E+00             6.241256E+00             1.093410E+01             1.842532E+01             2.142537E+01
                   5.5800            -1.015933E+01            -4.671891E+01            -4.727867E+00             6.249372E+00             1.123913E+01             1.841807E+01             2.157645E+01
                   5.7600            -1.048412E+01            -4.675938E+01            -5.014103E+00             6.257440E+00             1.154412E+01             1.841061E+01             2.173057E+01
                   5.9400            -1.080878E+01            -4.679995E+01            -5.300201E+00             6.265451E+00             1.184905E+01             1.840297E+01             2.188766E+01
                   6.1200            -1.113333E+01            -4.684062E+01            -5.586163E+00             6.273392E+00             1.215392E+01             1.839517E+01             2.204768E+01
                   6.3000            -1.145778E+01            -4.688142E+01            -5.871994E+00             6.281254E+00             1.245871E+01             1.838724E+01             2.221058E+01
                   6.4800            -1.178212E+01            -4.692237E+01            -6.157694E+00             6.289024E+00             1.276341E+01             1.837921E+01             2.237633E+01
                   6.6600            -1.210638E+01            -4.696351E+01            -6.443267E+00             6.296691E+00             1.306802E+01             1.837110E+01             2.254486E+01
                   6.8400            -1.243054E+01            -4.700485E+01            -6.728715E+00             6.304245E+00             1.337253E+01             1.836296E+01             2.271614E+01
                   7.0200            -1.275463E+01            -4.704641E+01            -7.014041E+00             6.311674E+00             1.367692E+01             1.835482E+01             2.289012E+01
                   7.2000            -1.307865E+01            -4.708822E+01            -7.299248E+00             6.318967E+00             1.398118E+01             1.834671E+01             2.306676E+01
                   7.3800            -1.340260E+01            -4.713031E+01            -7.584338E+00             6.326112E+00             1.428531E+01             1.833867E+01             2.324601E+01
                   7.5600            -1.372650E+01            -4.717270E+01            -7.869315E+00             6.333099E+00             1.458929E+01             1.833073E+01             2.342783E+01
                   7.7400            -1.405035E+01            -4.721540E+01            -8.154180E+00             6.339915E+00             1.489312E+01             1.832294E+01             2.361218E+01
                   7.9200            -1.437415E+01            -4.725845E+01            -8.438938E+00             6.346551E+00             1.519678E+01             1.831534E+01             2.379903E+01
                   8.1000            -1.469792E+01            -4.730186E+01            -8.723589E+00             6.352993E+00             1.550026E+01             1.830796E+01             2.398832E+01
                   8.2800            -1.502167E+01            -4.734567E+01            -9.008138E+00             6.359233E+00             1.580355E+01             1.830085E+01             2.418002E+01
                   8.4600            -1.534539E+01            -4.738988E+01            -9.292586E+00             6.365257E+00             1.610664E+01             1.829405E+01             2.437408E+01
                   8.6400            -1.566910E+01            -4.743453E+01            -9.576937E+00             6.371056E+00             1.640951E+01             1.828760E+01             2.457048E+01
                   8.8200            -1.599280E+01            -4.747963E+01            -9.861192E+00             6.376618E+00             1.671216E+01             1.828156E+01             2.476917E+01
                   9.0000            -1.631651E+01            -4.752522E+01            -1.014536E+01             6.381934E+00             1.701457E+01             1.827597E+01             2.497011E+01
                   9.1800            -1.664022E+01            -4.757129E+01            -1.042943E+01             6.386992E+00             1.731673E+01             1.827086E+01             2.517327E+01
                   9.3600            -1.696394E+01            -4.761789E+01            -1.071341E+01             6.391781E+00             1.761863E+01             1.826630E+01             2.537861E+01
                   9.5400            -1.728769E+01            -4.766502E+01            -1.099731E+01             6.396293E+00             1.792025E+01             1.826232E+01             2.558609E+01
                   9.7200            -1.761146E+01            -4.771271E+01            -1.128112E+01             6.400516E+00             1.822159E+01             1.825897E+01             2.579567E+01
                   9.9000            -1.793526E+01            -4.776098E+01            -1.156486E+01             6.404442E+00             1.852263E+01             1.825630E+01             2.600731E+01
                  10.0800            -1.825910E+01            -4.780983E+01            -1.184851E+01             6.408061E+00             1.882335E+01             1.825436E+01             2.622099E+01
                  10.2600            -1.858298E+01            -4.785930E+01            -1.213208E+01             6.411364E+00             1.912374E+01             1.825319E+01             2.643665E+01
                  10.4400            -1.890690E+01            -4.790938E+01            -1.241557E+01             6.414342E+00             1.942380E+01             1.825285E+01             2.665427E+01
                  10.6200            -1.923088E+01            -4.796011E+01            -1.269899E+01             6.416986E+00             1.972350E+01             1.825336E+01             2.687381E+01
                  10.8000            -1.955490E+01            -4.801148E+01            -1.298233E+01             6.419289E+00             2.002283E+01             1.825479E+01             2.709522E+01
                  10.9800            -1.987899E+01            -4.806352E+01            -1.326559E+01             6.421243E+00             2.032178E+01             1.825718E+01             2.731848E+01
                  11.1600            -2.020313E+01            -4.811624E+01            -1.354878E+01             6.422841E+00             2.062034E+01             1.826056E+01             2.754354E+01
                  11.3400            -2.052733E+01            -4.816963E+01            -1.383189E+01             6.424077E+00             2.091849E+01             1.826499E+01             2.777036E+01
                  11.5200            -2.085159E+01            -4.822373E+01            -1.411493E+01             6.424943E+00             2.121622E+01             1.827050E+01             2.799892E+01
                  11.7000            -2.117591E+01            -4.827852E+01            -1.439789E+01             6.425434E+00             2.151351E+01             1.827714E+01             2.822915E+01
                  11.8800            -2.150029E+01            -4.833402E+01            -1.468077E+01             6.425545E+00             2.181036E+01             1.828494E+01             2.846104E+01
                  12.0600            -2.182473E+01            -4.839023E+01            -1.496357E+01             6.425271E+00             2.210674E+01             1.829394E+01             2.869453E+01
                  12.2400            -2.214922E+01            -4.844716E+01            -1.524629E+01             6.424608E+00             2.240265E+01             1.830417E+01             2.892959E+01
                  12.4200            -2.247377E+01            -4.850480E+01            -1.552892E+01             6.423552E+00             2.269807E+01             1.831567E+01             2.916618E+01
                  12.6000            -2.279838E+01            -4.856316E+01            -1.581147E+01             6.422100E+00             2.299298E+01             1.832847E+01             2.940425E+01
                  12.7800            -2.312303E+01            -4.862223E+01            -1.609393E+01             6.420250E+00             2.328738E+01             1.834260E+01             2.964377E+01
                  12.9600            -2.344772E+01            -4.868202E+01            -1.637629E+01             6.418000E+00             2.358125E+01             1.835808E+01             2.988469E+01
                  13.1400            -2.377244E+01            -4.874252E+01            -1.665856E+01             6.415348E+00             2.387459E+01             1.837493E+01             3.012697E+01
                  13.3200            -2.409720E+01            -4.880372E+01            -1.694073E+01             6.412294E+00             2.416737E+01             1.839319E+01             3.037056E+01
                  13.5000            -2.442197E+01            -4.886562E+01            -1.722279E+01             6.408837E+00             2.445958E+01             1.841286E+01             3.061543E+01
                  13.6800            -2.474676E+01            -4.892820E+01            -1.750475E+01             6.404979E+00             2.475122E+01             1.843397E+01             3.086153E+01
                  13.8600            -2.507155E+01            -4.899146E+01            -1.778658E+01             6.400721E+00             2.504226E+01             1.845652E+01             3.110881E+01
                  14.0400            -2.539634E+01            -4.905538E+01            -1.806830E+01             6.396063E+00             2.533271E+01             1.848053E+01             3.135723E+01
                  14.2200            -2.572110E+01            -4.911996E+01            -1.834988E+01             6.391009E+00             2.562255E+01             1.850600E+01             3.160675E+01
                  14.4000            -2.604584E+01            -4.918517E+01            -1.863133E+01             6.385562E+00             2.591176E+01             1.853293E+01             3.185732E+01
                  14.5800            -2.637053E+01            -4.925101E+01            -1.891264E+01             6.379724E+00             2.620034E+01             1.856134E+01             3.210890E+01
                  14.7600            -2.669517E+01            -4.931745E+01            -1.919380E+01             6.373501E+00             2.648828E+01             1.859121E+01             3.236143E+01
                  14.9400            -2.701974E+01            -4.938447E+01            -1.947481E+01             6.366896E+00             2.677557E+01             1.862254E+01             3.261488E+01
                  15.1200            -2.734422E+01            -4.945206E+01            -1.975565E+01             6.359914E+00             2.706220E+01             1.865532E+01             3.286919E+01
                  15.3000            -2.766861E+01            -4.952020E+01            -2.003631E+01             6.352562E+00             2.734816E+01             1.868954E+01             3.312432E+01
                  15.4800            -2.799287E+01            -4.958886E+01            -2.031679E+01             6.344846E+00             2.763344E+01             1.872519E+01             3.338023E+01
                  15.6600            -2.831700E+01            -4.965801E+01            -2.059708E+01             6.336772E+00             2.791804E+01             1.876224E+01             3.363687E+01
                  15.8400            -2.864098E+01            -4.972765E+01            -2.087717E+01             6.328346E+00             2.820195E+01             1.880069E+01             3.389418E+01
                  16.0200            -2.896479E+01            -4.979773E+01            -2.115705E+01             6.319578E+00             2.848515E+01             1.884050E+01             3.415214E+01
                  16.2000            -2.928841E+01            -4.986824E+01            -2.143671E+01             6.310473E+00             2.876765E+01             1.888165E+01             3.441068E+01
                  16.3800            -2.961183E+01            -4.993915E+01            -2.171613E+01             6.301041E+00             2.904944E+01             1.892412E+01             3.466976E+01
                  16.5600            -2.993502E+01            -5.001044E+01            -2.199532E+01             6.291290E+00             2.933052E+01             1.896786E+01             3.492934E+01
                  16.7400            -3.025796E+01            -5.008206E+01            -2.227425E+01             6.281228E+00             2.961087E+01             1.901286E+01             3.518938E+01
                  16.9200            -3.058063E+01            -5.015401E+01            -2.255293E+01             6.270865E+00             2.989049E+01             1.905906E+01             3.544981E+01
                  17.1000            -3.090301E+01            -5.022624E+01            -2.283133E+01             6.260209E+00             3.016938E+01             1.910644E+01             3.571061E+01
                  17.2800            -3.122509E+01            -5.029874E+01            -2.310944E+01             6.249271E+00             3.044754E+01             1.915496E+01             3.597173E+01
                  17.4600            -3.154684E+01            -5.037146E+01            -2.338726E+01             6.238059E+00             3.072497E+01             1.920457E+01             3.623312E+01
