                   Degree           dqdtheta_sc[W]           dqdtheta_dc[W]           dqdtheta_hc[W]       dqdtheta_resoil[W]          dqdtheta_oil[W]
                   0.0000             6.860041E-04             2.766002E+00             0.000000E+00             2.202924E+00             9.944875E+03
                   0.1800             3.403512E-02             2.826301E+00             0.000000E+00             2.153116E+00             9.944880E+03
                   0.3600             5.768846E-02             2.862096E+00             0.000000E+00             2.191643E+00             9.944876E+03
                   0.5400             7.924211E-02             2.900805E+00             0.000000E+00             2.202893E+00             9.944874E+03
                   0.7200             9.979996E-02             2.938249E+00             0.000000E+00             2.204392E+00             9.944874E+03
                   0.9000             1.196546E-01             2.972970E+00             0.000000E+00             2.202473E+00             9.944874E+03
                   1.0800             1.389301E-01             3.004451E+00             0.000000E+00             2.199484E+00             9.944874E+03
                   1.2600             1.577041E-01             3.032504E+00             0.000000E+00             2.196347E+00             9.944874E+03
                   1.4400             1.760412E-01             3.057075E+00             0.000000E+00             2.193408E+00             9.944874E+03
                   1.6200             1.939964E-01             3.078157E+00             0.000000E+00             2.190800E+00             9.944874E+03
                   1.8000             2.116150E-01             3.095761E+00             0.000000E+00             2.188572E+00             9.944875E+03
                   1.9800             2.289349E-01             3.109902E+00             0.000000E+00             2.186747E+00             9.944875E+03
                   2.1600             2.459871E-01             3.120598E+00             0.000000E+00             2.185331E+00             9.944875E+03
                   2.3400             2.627980E-01             3.127870E+00             0.000000E+00             2.184326E+00             9.944875E+03
                   2.5200             2.793894E-01             3.131745E+00             0.000000E+00             2.183732E+00             9.944875E+03
                   2.7000             2.957801E-01             3.132275E+00             0.000000E+00             2.183544E+00             9.944875E+03
                   2.8800             3.119862E-01             3.130132E+00             0.000000E+00             2.183682E+00             9.944875E+03
                   3.0600             3.280216E-01             3.127698E+00             0.000000E+00             2.183860E+00             9.944875E+03
                   3.2400             3.438988E-01             3.125280E+00             0.000000E+00             2.184043E+00             9.944875E+03
                   3.4200             3.596285E-01             3.122880E+00             0.000000E+00             2.184229E+00             9.944875E+03
                   3.6000             3.752205E-01             3.120498E+00             0.000000E+00             2.184418E+00             9.944875E+03
                   3.7800             3.906836E-01             3.118134E+00             0.000000E+00             2.184609E+00             9.944875E+03
                   3.9600             4.060254E-01             3.115787E+00             0.000000E+00             2.184804E+00             9.944875E+03
                   4.1400             4.212531E-01             3.113458E+00             0.000000E+00             2.185002E+00             9.944875E+03
                   4.3200             4.363732E-01             3.111146E+00             0.000000E+00             2.185202E+00             9.944875E+03
                   4.5000             4.513918E-01             3.108852E+00             0.000000E+00             2.185405E+00             9.944875E+03
                   4.6800             4.663143E-01             3.106575E+00             0.000000E+00             2.185610E+00             9.944875E+03
                   4.8600             4.811461E-01             3.104316E+00             0.000000E+00             2.185818E+00             9.944875E+03
                   5.0400             4.958918E-01             3.102074E+00             0.000000E+00             2.186027E+00             9.944875E+03
                   5.2200             5.105560E-01             3.099849E+00             0.000000E+00             2.186238E+00             9.944875E+03
                   5.4000             5.251431E-01             3.097642E+00             0.000000E+00             2.186451E+00             9.944875E+03
                   5.5800             5.396571E-01             3.095452E+00             0.000000E+00             2.186665E+00             9.944875E+03
                   5.7600             5.541019E-01             3.093279E+00             0.000000E+00             2.186880E+00             9.944875E+03
                   5.9400             5.684812E-01             3.091124E+00             0.000000E+00             2.187097E+00             9.944875E+03
                   6.1200             5.827985E-01             3.088986E+00             0.000000E+00             2.187315E+00             9.944875E+03
                   6.3000             5.970572E-01             3.086865E+00             0.000000E+00             2.187534E+00             9.944875E+03
                   6.4800             6.112608E-01             3.084761E+00             0.000000E+00             2.187753E+00             9.944875E+03
                   6.6600             6.254123E-01             3.082674E+00             0.000000E+00             2.187973E+00             9.944874E+03
                   6.8400             6.395149E-01             3.080605E+00             0.000000E+00             2.188193E+00             9.944874E+03
                   7.0200             6.535716E-01             3.078552E+00             0.000000E+00             2.188413E+00             9.944874E+03
                   7.2000             6.675854E-01             3.076517E+00             0.000000E+00             2.188634E+00             9.944874E+03
                   7.3800             6.815592E-01             3.074498E+00             0.000000E+00             2.188854E+00             9.944874E+03
                   7.5600             6.954959E-01             3.072496E+00             0.000000E+00             2.189074E+00             9.944874E+03
                   7.7400             7.093982E-01             3.070511E+00             0.000000E+00             2.189294E+00             9.944874E+03
                   7.9200             7.232688E-01             3.068543E+00             0.000000E+00             2.189513E+00             9.944874E+03
                   8.1000             7.371106E-01             3.066592E+00             0.000000E+00             2.189731E+00             9.944874E+03
                   8.2800             7.509261E-01             3.064658E+00             0.000000E+00             2.189949E+00             9.944874E+03
                   8.4600             7.647182E-01             3.062740E+00             0.000000E+00             2.190165E+00             9.944874E+03
                   8.6400             7.784893E-01             3.060839E+00             0.000000E+00             2.190380E+00             9.944874E+03
                   8.8200             7.922418E-01             3.058954E+00             0.000000E+00             2.190594E+00             9.944874E+03
                   9.0000             8.059787E-01             3.057086E+00             0.000000E+00             2.190806E+00             9.944874E+03
                   9.1800             8.197022E-01             3.055235E+00             0.000000E+00             2.191016E+00             9.944874E+03
                   9.3600             8.334149E-01             3.053400E+00             0.000000E+00             2.191225E+00             9.944874E+03
                   9.5400             8.471193E-01             3.051581E+00             0.000000E+00             2.191432E+00             9.944874E+03
                   9.7200             8.608177E-01             3.049779E+00             0.000000E+00             2.191637E+00             9.944874E+03
                   9.9000             8.745126E-01             3.047993E+00             0.000000E+00             2.191840E+00             9.944874E+03
                  10.0800             8.882064E-01             3.046223E+00             0.000000E+00             2.192040E+00             9.944874E+03
                  10.2600             9.019015E-01             3.044469E+00             0.000000E+00             2.192238E+00             9.944874E+03
                  10.4400             9.155999E-01             3.042731E+00             0.000000E+00             2.192434E+00             9.944874E+03
                  10.6200             9.293042E-01             3.041009E+00             0.000000E+00             2.192627E+00             9.944874E+03
                  10.8000             9.430163E-01             3.039303E+00             0.000000E+00             2.192818E+00             9.944874E+03
                  10.9800             9.567387E-01             3.037613E+00             0.000000E+00             2.193005E+00             9.944874E+03
                  11.1600             9.704733E-01             3.035939E+00             0.000000E+00             2.193190E+00             9.944874E+03
                  11.3400             9.842222E-01             3.034280E+00             0.000000E+00             2.193373E+00             9.944874E+03
                  11.5200             9.979874E-01             3.032637E+00             0.000000E+00             2.193552E+00             9.944874E+03
                  11.7000             1.011771E+00             3.031009E+00             0.000000E+00             2.193729E+00             9.944874E+03
                  11.8800             1.025575E+00             3.029397E+00             0.000000E+00             2.193902E+00             9.944874E+03
                  12.0600             1.039400E+00             3.027800E+00             0.000000E+00             2.194073E+00             9.944874E+03
                  12.2400             1.053250E+00             3.026219E+00             0.000000E+00             2.194241E+00             9.944874E+03
                  12.4200             1.067124E+00             3.024652E+00             0.000000E+00             2.194406E+00             9.944874E+03
                  12.6000             1.081026E+00             3.023100E+00             0.000000E+00             2.194568E+00             9.944874E+03
                  12.7800             1.094956E+00             3.021564E+00             0.000000E+00             2.194727E+00             9.944874E+03
                  12.9600             1.108916E+00             3.020042E+00             0.000000E+00             2.194884E+00             9.944874E+03
                  13.1400             1.122908E+00             3.018534E+00             0.000000E+00             2.195038E+00             9.944874E+03
                  13.3200             1.136932E+00             3.017042E+00             0.000000E+00             2.195189E+00             9.944874E+03
                  13.5000             1.150989E+00             3.015563E+00             0.000000E+00             2.195337E+00             9.944874E+03
                  13.6800             1.165081E+00             3.014099E+00             0.000000E+00             2.195483E+00             9.944874E+03
                  13.8600             1.179209E+00             3.012650E+00             0.000000E+00             2.195627E+00             9.944874E+03
                  14.0400             1.193373E+00             3.011214E+00             0.000000E+00             2.195768E+00             9.944874E+03
                  14.2200             1.207575E+00             3.009792E+00             0.000000E+00             2.195908E+00             9.944874E+03
                  14.4000             1.221814E+00             3.008384E+00             0.000000E+00             2.196045E+00             9.944874E+03
                  14.5800             1.236091E+00             3.006990E+00             0.000000E+00             2.196181E+00             9.944874E+03
                  14.7600             1.250408E+00             3.005609E+00             0.000000E+00             2.196315E+00             9.944874E+03
                  14.9400             1.264763E+00             3.004241E+00             0.000000E+00             2.196447E+00             9.944874E+03
                  15.1200             1.279157E+00             3.002887E+00             0.000000E+00             2.196578E+00             9.944874E+03
                  15.3000             1.293591E+00             3.001545E+00             0.000000E+00             2.196708E+00             9.944874E+03
                  15.4800             1.308065E+00             3.000217E+00             0.000000E+00             2.196837E+00             9.944874E+03
                  15.6600             1.322577E+00             2.998901E+00             0.000000E+00             2.196966E+00             9.944874E+03
                  15.8400             1.337128E+00             2.997598E+00             0.000000E+00             2.197094E+00             9.944874E+03
                  16.0200             1.351718E+00             2.996307E+00             0.000000E+00             2.197222E+00             9.944874E+03
                  16.2000             1.366346E+00             2.995029E+00             0.000000E+00             2.197350E+00             9.944874E+03
                  16.3800             1.381012E+00             2.993762E+00             0.000000E+00             2.197478E+00             9.944874E+03
                  16.5600             1.395715E+00             2.992508E+00             0.000000E+00             2.197607E+00             9.944874E+03
                  16.7400             1.410454E+00             2.991265E+00             0.000000E+00             2.197737E+00             9.944874E+03
                  16.9200             1.425228E+00             2.990034E+00             0.000000E+00             2.197867E+00             9.944874E+03
                  17.1000             1.440037E+00             2.988814E+00             0.000000E+00             2.197999E+00             9.944874E+03
                  17.2800             1.454880E+00             2.987606E+00             0.000000E+00             2.198133E+00             9.944874E+03
                  17.4600             1.469755E+00             2.986408E+00             0.000000E+00             2.198268E+00             9.944874E+03
                  17.6400             1.484661E+00             2.985222E+00             0.000000E+00             2.198406E+00             9.944874E+03
                  17.8200             1.499598E+00             2.984046E+00             0.000000E+00             2.198546E+00             9.944874E+03
                  18.0000             1.514564E+00             2.982881E+00             0.000000E+00             2.198689E+00             9.944874E+03
                  18.1800             1.529557E+00             2.981726E+00             0.000000E+00             2.198835E+00             9.944874E+03
                  18.3600             1.544576E+00             2.980581E+00             0.000000E+00             2.198984E+00             9.944874E+03
                  18.5400             1.559620E+00             2.979446E+00             0.000000E+00             2.199137E+00             9.944874E+03
                  18.7200             1.574688E+00             2.978321E+00             0.000000E+00             2.199293E+00             9.944874E+03
                  18.9000             1.589777E+00             2.977206E+00             0.000000E+00             2.199453E+00             9.944874E+03
                  19.0800             1.604887E+00             2.976100E+00             0.000000E+00             2.199618E+00             9.944874E+03
                  19.2600             1.620015E+00             2.975004E+00             0.000000E+00             2.199788E+00             9.944874E+03
                  19.4400             1.635161E+00             2.973917E+00             0.000000E+00             2.199962E+00             9.944874E+03
                  19.6200             1.650322E+00             2.972838E+00             0.000000E+00             2.200141E+00             9.944874E+03
                  19.8000             1.665497E+00             2.971769E+00             0.000000E+00             2.200326E+00             9.944874E+03
                  19.9800             1.680684E+00             2.970708E+00             0.000000E+00             2.200517E+00             9.944874E+03
                  20.1600             1.695882E+00             2.969656E+00             0.000000E+00             2.200713E+00             9.944874E+03
                  20.3400             1.711088E+00             2.968611E+00             0.000000E+00             2.200915E+00             9.944874E+03
                  20.5200             1.726303E+00             2.967575E+00             0.000000E+00             2.201124E+00             9.944874E+03
                  20.7000             1.741522E+00             2.966547E+00             0.000000E+00             2.201339E+00             9.944874E+03
                  20.8800             1.756746E+00             2.965527E+00             0.000000E+00             2.201561E+00             9.944874E+03
                  21.0600             1.771973E+00             2.964515E+00             0.000000E+00             2.201789E+00             9.944874E+03
                  21.2400             1.787200E+00             2.963509E+00             0.000000E+00             2.202025E+00             9.944874E+03
                  21.4200             1.802427E+00             2.962512E+00             0.000000E+00             2.202268E+00             9.944874E+03
                  21.6000             1.817651E+00             2.961521E+00             0.000000E+00             2.202519E+00             9.944874E+03
                  21.7800             1.832872E+00             2.960537E+00             0.000000E+00             2.202777E+00             9.944874E+03
                  21.9600             1.848087E+00             2.959561E+00             0.000000E+00             2.203043E+00             9.944874E+03
                  22.1400             1.863296E+00             2.958591E+00             0.000000E+00             2.203317E+00             9.944874E+03
                  22.3200             1.878497E+00             2.957627E+00             0.000000E+00             2.203599E+00             9.944874E+03
                  22.5000             1.893688E+00             2.956670E+00             0.000000E+00             2.203889E+00             9.944874E+03
                  22.6800             1.908868E+00             2.955720E+00             0.000000E+00             2.204188E+00             9.944874E+03
                  22.8600             1.924036E+00             2.954775E+00             0.000000E+00             2.204494E+00             9.944874E+03
                  23.0400             1.939190E+00             2.953836E+00             0.000000E+00             2.204810E+00             9.944874E+03
                  23.2200             1.954330E+00             2.952904E+00             0.000000E+00             2.205134E+00             9.944874E+03
                  23.4000             1.969453E+00             2.951977E+00             0.000000E+00             2.205467E+00             9.944874E+03
