                   Degree              F_vhoc_n[N]              F_vhoc_t[N]                 F_1_n[N]                 F_2_n[N]                  F_cx[N]                  F_cy[N]           F_resultant[N]
                   0.0000            -9.224035E-01            -4.887641E+01             3.924455E+00             5.400387E+00             1.475932E+00             2.004530E+01             2.009957E+01
                   0.1800            -2.529808E+00            -5.087791E+01             2.831094E+00             4.611426E+00             1.787459E+00             2.107654E+01             2.115220E+01
                   0.3600            -2.992815E+00            -5.089185E+01             2.416347E+00             4.585747E+00             2.183632E+00             2.113749E+01             2.124998E+01
                   0.5400            -3.453424E+00            -5.090497E+01             2.003248E+00             4.562481E+00             2.580541E+00             2.119904E+01             2.135553E+01
                   0.7200            -3.912374E+00            -5.091876E+01             1.591409E+00             4.541036E+00             2.977979E+00             2.126177E+01             2.146931E+01
                   0.9000            -4.369967E+00            -5.093394E+01             1.180703E+00             4.521105E+00             3.375757E+00             2.132592E+01             2.159145E+01
                   1.0800            -4.826396E+00            -5.095088E+01             7.710272E-01             4.502529E+00             3.773816E+00             2.139159E+01             2.172192E+01
                   1.2600            -5.281837E+00            -5.096976E+01             3.622546E-01             4.485228E+00             4.172198E+00             2.145878E+01             2.186062E+01
                   1.4400            -5.736283E+00            -5.099064E+01            -4.558797E-02             4.469155E+00             4.570828E+00             2.152745E+01             2.200735E+01
                   1.6200            -6.189765E+00            -5.101356E+01            -4.525216E-01             4.454286E+00             4.969699E+00             2.159752E+01             2.216192E+01
                   1.8000            -6.642271E+00            -5.103850E+01            -8.585302E-01             4.440608E+00             5.368778E+00             2.166890E+01             2.232409E+01
                   1.9800            -7.093845E+00            -5.106547E+01            -1.263655E+00             4.428111E+00             5.768095E+00             2.174152E+01             2.249366E+01
                   2.1600            -7.544448E+00            -5.109443E+01            -1.667859E+00             4.416788E+00             6.167606E+00             2.181526E+01             2.267035E+01
                   2.3400            -7.994098E+00            -5.112538E+01            -2.071159E+00             4.406634E+00             6.567321E+00             2.189004E+01             2.285396E+01
                   2.5200            -8.442776E+00            -5.115828E+01            -2.473540E+00             4.397646E+00             6.967220E+00             2.196575E+01             2.304422E+01
                   2.7000            -8.890475E+00            -5.119312E+01            -2.874996E+00             4.389819E+00             7.367292E+00             2.204230E+01             2.324091E+01
                   2.8800            -9.337198E+00            -5.122987E+01            -3.275532E+00             4.383150E+00             7.767540E+00             2.211958E+01             2.344377E+01
                   3.0600            -9.782926E+00            -5.126850E+01            -3.675129E+00             4.377634E+00             8.167943E+00             2.219750E+01             2.365258E+01
                   3.2400            -1.022766E+01            -5.130899E+01            -4.073793E+00             4.373269E+00             8.568502E+00             2.227597E+01             2.386709E+01
                   3.4200            -1.067139E+01            -5.135131E+01            -4.471519E+00             4.370052E+00             8.969213E+00             2.235487E+01             2.408707E+01
                   3.6000            -1.111412E+01            -5.139545E+01            -4.868300E+00             4.367977E+00             9.370065E+00             2.243411E+01             2.431229E+01
                   3.7800            -1.155583E+01            -5.144137E+01            -5.264130E+00             4.367039E+00             9.771052E+00             2.251360E+01             2.454252E+01
                   3.9600            -1.199653E+01            -5.148904E+01            -5.659013E+00             4.367234E+00             1.017217E+01             2.259322E+01             2.477755E+01
                   4.1400            -1.243619E+01            -5.153844E+01            -6.052939E+00             4.368552E+00             1.057341E+01             2.267289E+01             2.501714E+01
                   4.3200            -1.287484E+01            -5.158953E+01            -6.445915E+00             4.370983E+00             1.097478E+01             2.275251E+01             2.526108E+01
                   4.5000            -1.331247E+01            -5.164226E+01            -6.837940E+00             4.374511E+00             1.137625E+01             2.283197E+01             2.550917E+01
                   4.6800            -1.374908E+01            -5.169658E+01            -7.229029E+00             4.379111E+00             1.177782E+01             2.291119E+01             2.576120E+01
                   4.8600            -1.418471E+01            -5.175242E+01            -7.619202E+00             4.384739E+00             1.217947E+01             2.299007E+01             2.601698E+01
                   5.0400            -1.461940E+01            -5.180963E+01            -8.008514E+00             4.391312E+00             1.258118E+01             2.306856E+01             2.627631E+01
                   5.2200            -1.505330E+01            -5.186796E+01            -8.397086E+00             4.398641E+00             1.298288E+01             2.314662E+01             2.653905E+01
                   5.4000            -1.548668E+01            -5.192686E+01            -8.785182E+00             4.406344E+00             1.338445E+01             2.322429E+01             2.680506E+01
                   5.5800            -1.591980E+01            -5.198587E+01            -9.173032E+00             4.414081E+00             1.378575E+01             2.330165E+01             2.707423E+01
                   5.7600            -1.635272E+01            -5.204486E+01            -9.560693E+00             4.421765E+00             1.418676E+01             2.337872E+01             2.734646E+01
                   5.9400            -1.678541E+01            -5.210379E+01            -9.948158E+00             4.429390E+00             1.458747E+01             2.345547E+01             2.762161E+01
                   6.1200            -1.721786E+01            -5.216265E+01            -1.033542E+01             4.436961E+00             1.498787E+01             2.353190E+01             2.789958E+01
                   6.3000            -1.765007E+01            -5.222143E+01            -1.072247E+01             4.444481E+00             1.538796E+01             2.360797E+01             2.818023E+01
                   6.4800            -1.808200E+01            -5.228010E+01            -1.110929E+01             4.451954E+00             1.578773E+01             2.368368E+01             2.846347E+01
                   6.6600            -1.851366E+01            -5.233866E+01            -1.149589E+01             4.459382E+00             1.618717E+01             2.375900E+01             2.874916E+01
                   6.8400            -1.894500E+01            -5.239708E+01            -1.188224E+01             4.466772E+00             1.658628E+01             2.383391E+01             2.903721E+01
                   7.0200            -1.937603E+01            -5.245535E+01            -1.226833E+01             4.474126E+00             1.698506E+01             2.390838E+01             2.932751E+01
                   7.2000            -1.980673E+01            -5.251346E+01            -1.265417E+01             4.481447E+00             1.738349E+01             2.398240E+01             2.961995E+01
                   7.3800            -2.023707E+01            -5.257139E+01            -1.303973E+01             4.488742E+00             1.778158E+01             2.405595E+01             2.991443E+01
                   7.5600            -2.066704E+01            -5.262912E+01            -1.342501E+01             4.496012E+00             1.817932E+01             2.412899E+01             3.021085E+01
                   7.7400            -2.109662E+01            -5.268663E+01            -1.381000E+01             4.503263E+00             1.857670E+01             2.420150E+01             3.050912E+01
                   7.9200            -2.152580E+01            -5.274392E+01            -1.419469E+01             4.510498E+00             1.897372E+01             2.427346E+01             3.080914E+01
                   8.1000            -2.195457E+01            -5.280096E+01            -1.457906E+01             4.517721E+00             1.937038E+01             2.434483E+01             3.111081E+01
                   8.2800            -2.238289E+01            -5.285774E+01            -1.496312E+01             4.524936E+00             1.976667E+01             2.441560E+01             3.141405E+01
                   8.4600            -2.281076E+01            -5.291425E+01            -1.534684E+01             4.532148E+00             2.016259E+01             2.448573E+01             3.171878E+01
                   8.6400            -2.323816E+01            -5.297047E+01            -1.573023E+01             4.539358E+00             2.055812E+01             2.455520E+01             3.202490E+01
                   8.8200            -2.366507E+01            -5.302639E+01            -1.611326E+01             4.546573E+00             2.095328E+01             2.462397E+01             3.233234E+01
                   9.0000            -2.409148E+01            -5.308198E+01            -1.649594E+01             4.553795E+00             2.134806E+01             2.469202E+01             3.264101E+01
                   9.1800            -2.451736E+01            -5.313725E+01            -1.687824E+01             4.561028E+00             2.174244E+01             2.475932E+01             3.295084E+01
                   9.3600            -2.494272E+01            -5.319217E+01            -1.726017E+01             4.568275E+00             2.213644E+01             2.482583E+01             3.326175E+01
                   9.5400            -2.536752E+01            -5.324672E+01            -1.764171E+01             4.575540E+00             2.253004E+01             2.489153E+01             3.357367E+01
                   9.7200            -2.579175E+01            -5.330091E+01            -1.802286E+01             4.582826E+00             2.292324E+01             2.495639E+01             3.388652E+01
                   9.9000            -2.621540E+01            -5.335471E+01            -1.840360E+01             4.590137E+00             2.331605E+01             2.502037E+01             3.420025E+01
                  10.0800            -2.663844E+01            -5.340811E+01            -1.878392E+01             4.597474E+00             2.370845E+01             2.508346E+01             3.451478E+01
                  10.2600            -2.706088E+01            -5.346110E+01            -1.916382E+01             4.604842E+00             2.410044E+01             2.514560E+01             3.483005E+01
                  10.4400            -2.748269E+01            -5.351368E+01            -1.954329E+01             4.612243E+00             2.449203E+01             2.520678E+01             3.514600E+01
                  10.6200            -2.790385E+01            -5.356582E+01            -1.992232E+01             4.619678E+00             2.488320E+01             2.526697E+01             3.546257E+01
                  10.8000            -2.832435E+01            -5.361752E+01            -2.030090E+01             4.627152E+00             2.527396E+01             2.532613E+01             3.577969E+01
                  10.9800            -2.874419E+01            -5.366878E+01            -2.067902E+01             4.634664E+00             2.566431E+01             2.538424E+01             3.609732E+01
                  11.1600            -2.916334E+01            -5.371958E+01            -2.105668E+01             4.642217E+00             2.605423E+01             2.544127E+01             3.641540E+01
                  11.3400            -2.958179E+01            -5.376991E+01            -2.143387E+01             4.649813E+00             2.644374E+01             2.549719E+01             3.673389E+01
                  11.5200            -2.999953E+01            -5.381977E+01            -2.181057E+01             4.657453E+00             2.683283E+01             2.555198E+01             3.705272E+01
                  11.7000            -3.041655E+01            -5.386916E+01            -2.218679E+01             4.665138E+00             2.722149E+01             2.560560E+01             3.737186E+01
                  11.8800            -3.083284E+01            -5.391806E+01            -2.256251E+01             4.672868E+00             2.760972E+01             2.565803E+01             3.769126E+01
                  12.0600            -3.124838E+01            -5.396648E+01            -2.293774E+01             4.680643E+00             2.799752E+01             2.570925E+01             3.801088E+01
                  12.2400            -3.166316E+01            -5.401440E+01            -2.331245E+01             4.688464E+00             2.838490E+01             2.575924E+01             3.833068E+01
                  12.4200            -3.207718E+01            -5.406184E+01            -2.368665E+01             4.696331E+00             2.877184E+01             2.580797E+01             3.865062E+01
                  12.6000            -3.249043E+01            -5.410878E+01            -2.406033E+01             4.704242E+00             2.915835E+01             2.585542E+01             3.897065E+01
                  12.7800            -3.290288E+01            -5.415523E+01            -2.443348E+01             4.712196E+00             2.954442E+01             2.590157E+01             3.929076E+01
                  12.9600            -3.331455E+01            -5.420118E+01            -2.480610E+01             4.720193E+00             2.993005E+01             2.594641E+01             3.961091E+01
                  13.1400            -3.372541E+01            -5.424664E+01            -2.517819E+01             4.728230E+00             3.031523E+01             2.598992E+01             3.993106E+01
                  13.3200            -3.413547E+01            -5.429160E+01            -2.554973E+01             4.736306E+00             3.069998E+01             2.603209E+01             4.025119E+01
                  13.5000            -3.454470E+01            -5.433608E+01            -2.592072E+01             4.744417E+00             3.108428E+01             2.607289E+01             4.057127E+01
                  13.6800            -3.495312E+01            -5.438008E+01            -2.629116E+01             4.752562E+00             3.146812E+01             2.611233E+01             4.089127E+01
                  13.8600            -3.536071E+01            -5.442360E+01            -2.666105E+01             4.760736E+00             3.185152E+01             2.615038E+01             4.121119E+01
                  14.0400            -3.576746E+01            -5.446665E+01            -2.703038E+01             4.768937E+00             3.223446E+01             2.618705E+01             4.153098E+01
                  14.2200            -3.617338E+01            -5.450923E+01            -2.739914E+01             4.777160E+00             3.261695E+01             2.622233E+01             4.185064E+01
                  14.4000            -3.657846E+01            -5.455135E+01            -2.776734E+01             4.785401E+00             3.299897E+01             2.625621E+01             4.217014E+01
                  14.5800            -3.698269E+01            -5.459303E+01            -2.813497E+01             4.793655E+00             3.338053E+01             2.628870E+01             4.248947E+01
                  14.7600            -3.738607E+01            -5.463426E+01            -2.850203E+01             4.801918E+00             3.376162E+01             2.631979E+01             4.280862E+01
                  14.9400            -3.778861E+01            -5.467507E+01            -2.886851E+01             4.810183E+00             3.414223E+01             2.634949E+01             4.312757E+01
                  15.1200            -3.819029E+01            -5.471546E+01            -2.923441E+01             4.818446E+00             3.452237E+01             2.637779E+01             4.344632E+01
                  15.3000            -3.859111E+01            -5.475545E+01            -2.959974E+01             4.826700E+00             3.490203E+01             2.640472E+01             4.376484E+01
                  15.4800            -3.899109E+01            -5.479504E+01            -2.996448E+01             4.834940E+00             3.528121E+01             2.643027E+01             4.408313E+01
                  15.6600            -3.939020E+01            -5.483426E+01            -3.032864E+01             4.843157E+00             3.565990E+01             2.645445E+01             4.440119E+01
                  15.8400            -3.978847E+01            -5.487311E+01            -3.069222E+01             4.851346E+00             3.603809E+01             2.647728E+01             4.471901E+01
                  16.0200            -4.018588E+01            -5.491161E+01            -3.105521E+01             4.859499E+00             3.641578E+01             2.649878E+01             4.503659E+01
                  16.2000            -4.058243E+01            -5.494978E+01            -3.141762E+01             4.867609E+00             3.679296E+01             2.651895E+01             4.535391E+01
                  16.3800            -4.097814E+01            -5.498763E+01            -3.177944E+01             4.875669E+00             3.716964E+01             2.653782E+01             4.567097E+01
                  16.5600            -4.137299E+01            -5.502518E+01            -3.214067E+01             4.883669E+00             3.754579E+01             2.655540E+01             4.598778E+01
                  16.7400            -4.176700E+01            -5.506244E+01            -3.250131E+01             4.891604E+00             3.792143E+01             2.657172E+01             4.630433E+01
                  16.9200            -4.216016E+01            -5.509943E+01            -3.286137E+01             4.899463E+00             3.829653E+01             2.658680E+01             4.662062E+01
                  17.1000            -4.255247E+01            -5.513618E+01            -3.322084E+01             4.907239E+00             3.867109E+01             2.660067E+01             4.693665E+01
                  17.2800            -4.294395E+01            -5.517269E+01            -3.357972E+01             4.914924E+00             3.904512E+01             2.661335E+01             4.725242E+01
                  17.4600            -4.333459E+01            -5.520898E+01            -3.393801E+01             4.922508E+00             3.941858E+01             2.662486E+01             4.756793E+01
