                   Degree              F_vhoc_n[N]              F_vhoc_t[N]                 F_1_n[N]                 F_2_n[N]                  F_cx[N]                  F_cy[N]           F_resultant[N]
                   0.0000            -1.298495E+00            -4.843655E+01             3.603468E+00             4.989612E+00             1.386144E+00             1.992064E+01             1.996880E+01
                   0.1800            -3.299042E-01            -4.567063E+01             3.956772E+00             6.072481E+00             2.122087E+00             1.857539E+01             1.869621E+01
                   0.3600            -6.655278E-01            -4.567850E+01             3.657069E+00             6.071958E+00             2.427779E+00             1.856266E+01             1.872074E+01
                   0.5400            -1.006293E+00            -4.570167E+01             3.355113E+00             6.068272E+00             2.732699E+00             1.855736E+01             1.875748E+01
                   0.7200            -1.348121E+00            -4.573210E+01             3.053107E+00             6.064531E+00             3.037752E+00             1.855557E+01             1.880258E+01
                   0.9000            -1.689264E+00            -4.576643E+01             2.752018E+00             6.062017E+00             3.343250E+00             1.855550E+01             1.885428E+01
                   1.0800            -2.029118E+00            -4.580348E+01             2.452173E+00             6.061183E+00             3.649321E+00             1.855640E+01             1.891184E+01
                   1.2600            -2.367476E+00            -4.584268E+01             2.153655E+00             6.062226E+00             3.956079E+00             1.855785E+01             1.897484E+01
                   1.4400            -2.704233E+00            -4.588389E+01             1.856537E+00             6.065186E+00             4.263492E+00             1.855960E+01             1.904301E+01
                   1.6200            -3.039399E+00            -4.592699E+01             1.560803E+00             6.070045E+00             4.571559E+00             1.856148E+01             1.911616E+01
                   1.8000            -3.373163E+00            -4.597161E+01             1.266287E+00             6.076537E+00             4.880184E+00             1.856328E+01             1.919405E+01
                   1.9800            -3.706495E+00            -4.601621E+01             9.721305E-01             6.083477E+00             5.189037E+00             1.856471E+01             1.927627E+01
                   2.1600            -4.039589E+00            -4.606043E+01             6.781621E-01             6.090577E+00             5.497998E+00             1.856571E+01             1.936268E+01
                   2.3400            -4.372467E+00            -4.610429E+01             3.843656E-01             6.097828E+00             5.807075E+00             1.856628E+01             1.945325E+01
                   2.5200            -4.705123E+00            -4.614781E+01             9.074740E-02             6.105218E+00             6.116252E+00             1.856642E+01             1.954790E+01
                   2.7000            -5.037561E+00            -4.619101E+01            -2.026934E-01             6.112739E+00             6.425519E+00             1.856612E+01             1.964658E+01
                   2.8800            -5.369792E+00            -4.623391E+01            -4.959655E-01             6.120379E+00             6.734874E+00             1.856540E+01             1.974924E+01
                   3.0600            -5.701812E+00            -4.627655E+01            -7.890611E-01             6.128129E+00             7.044299E+00             1.856426E+01             1.985582E+01
                   3.2400            -6.033631E+00            -4.631893E+01            -1.081988E+00             6.135977E+00             7.353793E+00             1.856269E+01             1.996627E+01
                   3.4200            -6.365256E+00            -4.636108E+01            -1.374750E+00             6.143913E+00             7.663348E+00             1.856071E+01             2.008051E+01
                   3.6000            -6.696687E+00            -4.640303E+01            -1.667346E+00             6.151928E+00             7.972953E+00             1.855833E+01             2.019850E+01
                   3.7800            -7.027930E+00            -4.644479E+01            -1.959776E+00             6.160010E+00             8.282599E+00             1.855554E+01             2.032018E+01
                   3.9600            -7.358992E+00            -4.648639E+01            -2.252047E+00             6.168150E+00             8.592282E+00             1.855237E+01             2.044548E+01
                   4.1400            -7.689874E+00            -4.652784E+01            -2.544155E+00             6.176337E+00             8.901987E+00             1.854882E+01             2.057436E+01
                   4.3200            -8.020584E+00            -4.656918E+01            -2.836107E+00             6.184560E+00             9.211712E+00             1.854491E+01             2.070675E+01
                   4.5000            -8.351126E+00            -4.661042E+01            -3.127900E+00             6.192810E+00             9.521444E+00             1.854065E+01             2.084259E+01
                   4.6800            -8.681504E+00            -4.665159E+01            -3.419539E+00             6.201077E+00             9.831177E+00             1.853605E+01             2.098183E+01
                   4.8600            -9.011726E+00            -4.669270E+01            -3.711026E+00             6.209348E+00             1.014090E+01             1.853114E+01             2.112442E+01
                   5.0400            -9.341797E+00            -4.673378E+01            -4.002363E+00             6.217615E+00             1.045061E+01             1.852592E+01             2.127028E+01
                   5.2200            -9.671720E+00            -4.677486E+01            -4.293551E+00             6.225866E+00             1.076029E+01             1.852042E+01             2.141938E+01
                   5.4000            -1.000150E+01            -4.681595E+01            -4.584593E+00             6.234090E+00             1.106994E+01             1.851466E+01             2.157166E+01
                   5.5800            -1.033115E+01            -4.685707E+01            -4.875489E+00             6.242278E+00             1.137955E+01             1.850867E+01             2.172705E+01
                   5.7600            -1.066067E+01            -4.689826E+01            -5.166245E+00             6.250418E+00             1.168910E+01             1.850245E+01             2.188552E+01
                   5.9400            -1.099007E+01            -4.693953E+01            -5.456860E+00             6.258499E+00             1.199859E+01             1.849605E+01             2.204700E+01
                   6.1200            -1.131935E+01            -4.698091E+01            -5.747337E+00             6.266510E+00             1.230801E+01             1.848949E+01             2.221145E+01
                   6.3000            -1.164852E+01            -4.702241E+01            -6.037681E+00             6.274441E+00             1.261736E+01             1.848279E+01             2.237881E+01
                   6.4800            -1.197759E+01            -4.706407E+01            -6.327890E+00             6.282281E+00             1.292661E+01             1.847598E+01             2.254904E+01
                   6.6600            -1.230656E+01            -4.710590E+01            -6.617970E+00             6.290018E+00             1.323576E+01             1.846910E+01             2.272208E+01
                   6.8400            -1.263544E+01            -4.714793E+01            -6.907921E+00             6.297642E+00             1.354480E+01             1.846217E+01             2.289789E+01
                   7.0200            -1.296424E+01            -4.719018E+01            -7.197747E+00             6.305141E+00             1.385373E+01             1.845524E+01             2.307643E+01
                   7.2000            -1.329296E+01            -4.723268E+01            -7.487450E+00             6.312504E+00             1.416252E+01             1.844833E+01             2.325764E+01
                   7.3800            -1.362162E+01            -4.727545E+01            -7.777034E+00             6.319720E+00             1.447117E+01             1.844148E+01             2.344148E+01
                   7.5600            -1.395021E+01            -4.731851E+01            -8.066500E+00             6.326778E+00             1.477968E+01             1.843472E+01             2.362791E+01
                   7.7400            -1.427874E+01            -4.736188E+01            -8.355850E+00             6.333667E+00             1.508802E+01             1.842811E+01             2.381687E+01
                   7.9200            -1.460723E+01            -4.740559E+01            -8.645088E+00             6.340375E+00             1.539619E+01             1.842166E+01             2.400834E+01
                   8.1000            -1.493567E+01            -4.744966E+01            -8.934216E+00             6.346892E+00             1.570418E+01             1.841544E+01             2.420226E+01
                   8.2800            -1.526408E+01            -4.749411E+01            -9.223236E+00             6.353207E+00             1.601197E+01             1.840947E+01             2.439860E+01
                   8.4600            -1.559247E+01            -4.753896E+01            -9.512151E+00             6.359309E+00             1.631955E+01             1.840380E+01             2.459731E+01
                   8.6400            -1.592083E+01            -4.758424E+01            -9.800964E+00             6.365186E+00             1.662692E+01             1.839847E+01             2.479835E+01
                   8.8200            -1.624918E+01            -4.762997E+01            -1.008968E+01             6.370829E+00             1.693406E+01             1.839353E+01             2.500168E+01
                   9.0000            -1.657752E+01            -4.767617E+01            -1.037829E+01             6.376227E+00             1.724095E+01             1.838902E+01             2.520727E+01
                   9.1800            -1.690586E+01            -4.772285E+01            -1.066681E+01             6.381369E+00             1.754759E+01             1.838498E+01             2.541507E+01
                   9.3600            -1.723421E+01            -4.777005E+01            -1.095523E+01             6.386245E+00             1.785397E+01             1.838147E+01             2.562504E+01
                   9.5400            -1.756256E+01            -4.781777E+01            -1.124357E+01             6.390845E+00             1.816006E+01             1.837853E+01             2.583715E+01
                   9.7200            -1.789093E+01            -4.786603E+01            -1.153181E+01             6.395159E+00             1.846586E+01             1.837620E+01             2.605135E+01
                   9.9000            -1.821933E+01            -4.791486E+01            -1.181996E+01             6.399178E+00             1.877136E+01             1.837453E+01             2.626761E+01
                  10.0800            -1.854774E+01            -4.796427E+01            -1.210803E+01             6.402892E+00             1.907654E+01             1.837357E+01             2.648589E+01
                  10.2600            -1.887620E+01            -4.801428E+01            -1.239601E+01             6.406293E+00             1.938139E+01             1.837336E+01             2.670615E+01
                  10.4400            -1.920468E+01            -4.806490E+01            -1.268391E+01             6.409372E+00             1.968589E+01             1.837395E+01             2.692836E+01
                  10.6200            -1.953320E+01            -4.811615E+01            -1.297172E+01             6.412120E+00             1.999004E+01             1.837538E+01             2.715246E+01
                  10.8000            -1.986177E+01            -4.816803E+01            -1.325945E+01             6.414530E+00             2.029381E+01             1.837770E+01             2.737844E+01
                  10.9800            -2.019038E+01            -4.822057E+01            -1.354709E+01             6.416594E+00             2.059720E+01             1.838096E+01             2.760624E+01
                  11.1600            -2.051903E+01            -4.827377E+01            -1.383466E+01             6.418305E+00             2.090019E+01             1.838519E+01             2.783583E+01
                  11.3400            -2.084774E+01            -4.832764E+01            -1.412214E+01             6.419656E+00             2.120277E+01             1.839043E+01             2.806716E+01
                  11.5200            -2.117649E+01            -4.838219E+01            -1.440953E+01             6.420641E+00             2.150493E+01             1.839674E+01             2.830021E+01
                  11.7000            -2.150529E+01            -4.843743E+01            -1.469685E+01             6.421254E+00             2.180664E+01             1.840414E+01             2.853493E+01
                  11.8800            -2.183414E+01            -4.849337E+01            -1.498407E+01             6.421491E+00             2.210791E+01             1.841268E+01             2.877128E+01
                  12.0600            -2.216303E+01            -4.855000E+01            -1.527121E+01             6.421345E+00             2.240870E+01             1.842239E+01             2.900922E+01
                  12.2400            -2.249197E+01            -4.860733E+01            -1.555826E+01             6.420814E+00             2.270902E+01             1.843331E+01             2.924870E+01
                  12.4200            -2.282095E+01            -4.866537E+01            -1.584521E+01             6.419894E+00             2.300885E+01             1.844547E+01             2.948970E+01
                  12.6000            -2.314997E+01            -4.872412E+01            -1.613208E+01             6.418580E+00             2.330817E+01             1.845889E+01             2.973216E+01
                  12.7800            -2.347903E+01            -4.878356E+01            -1.641884E+01             6.416872E+00             2.360697E+01             1.847362E+01             2.997605E+01
                  12.9600            -2.380811E+01            -4.884371E+01            -1.670551E+01             6.414766E+00             2.390524E+01             1.848966E+01             3.022132E+01
                  13.1400            -2.413721E+01            -4.890455E+01            -1.699207E+01             6.412262E+00             2.420296E+01             1.850706E+01             3.046793E+01
                  13.3200            -2.446633E+01            -4.896609E+01            -1.727852E+01             6.409359E+00             2.450013E+01             1.852582E+01             3.071583E+01
                  13.5000            -2.479546E+01            -4.902831E+01            -1.756485E+01             6.406057E+00             2.479673E+01             1.854597E+01             3.096499E+01
                  13.6800            -2.512459E+01            -4.909120E+01            -1.785107E+01             6.402356E+00             2.509275E+01             1.856752E+01             3.121536E+01
                  13.8600            -2.545371E+01            -4.915476E+01            -1.813716E+01             6.398257E+00             2.538817E+01             1.859049E+01             3.146690E+01
                  14.0400            -2.578280E+01            -4.921897E+01            -1.842313E+01             6.393762E+00             2.568300E+01             1.861488E+01             3.171955E+01
                  14.2200            -2.611187E+01            -4.928382E+01            -1.870896E+01             6.388873E+00             2.597720E+01             1.864070E+01             3.197328E+01
                  14.4000            -2.644090E+01            -4.934930E+01            -1.899464E+01             6.383593E+00             2.627079E+01             1.866796E+01             3.222804E+01
                  14.5800            -2.676987E+01            -4.941538E+01            -1.928017E+01             6.377926E+00             2.656373E+01             1.869665E+01             3.248379E+01
                  14.7600            -2.709877E+01            -4.948207E+01            -1.956555E+01             6.371874E+00             2.685604E+01             1.872678E+01             3.274048E+01
                  14.9400            -2.742758E+01            -4.954932E+01            -1.985076E+01             6.365444E+00             2.714768E+01             1.875834E+01             3.299806E+01
                  15.1200            -2.775630E+01            -4.961714E+01            -2.013580E+01             6.358639E+00             2.743867E+01             1.879132E+01             3.325649E+01
                  15.3000            -2.808491E+01            -4.968549E+01            -2.042066E+01             6.351465E+00             2.772898E+01             1.882571E+01             3.351572E+01
                  15.4800            -2.841339E+01            -4.975435E+01            -2.070533E+01             6.343928E+00             2.801861E+01             1.886150E+01             3.377571E+01
                  15.6600            -2.874172E+01            -4.982371E+01            -2.098979E+01             6.336035E+00             2.830755E+01             1.889867E+01             3.403641E+01
                  15.8400            -2.906989E+01            -4.989353E+01            -2.127405E+01             6.327792E+00             2.859579E+01             1.893720E+01             3.429777E+01
                  16.0200            -2.939788E+01            -4.996380E+01            -2.155809E+01             6.319206E+00             2.888334E+01             1.897707E+01             3.455975E+01
                  16.2000            -2.972566E+01            -5.003448E+01            -2.184190E+01             6.310286E+00             2.917017E+01             1.901825E+01             3.482230E+01
                  16.3800            -3.005323E+01            -5.010556E+01            -2.212548E+01             6.301038E+00             2.945629E+01             1.906071E+01             3.508537E+01
                  16.5600            -3.038056E+01            -5.017701E+01            -2.240880E+01             6.291472E+00             2.974168E+01             1.910443E+01             3.534893E+01
                  16.7400            -3.070763E+01            -5.024879E+01            -2.269187E+01             6.281596E+00             3.002635E+01             1.914937E+01             3.561293E+01
                  16.9200            -3.103442E+01            -5.032089E+01            -2.297466E+01             6.271418E+00             3.031029E+01             1.919551E+01             3.587731E+01
                  17.1000            -3.136092E+01            -5.039327E+01            -2.325718E+01             6.260947E+00             3.059350E+01             1.924279E+01             3.614204E+01
                  17.2800            -3.168710E+01            -5.046591E+01            -2.353940E+01             6.250194E+00             3.087596E+01             1.929118E+01             3.640707E+01
                  17.4600            -3.201293E+01            -5.053878E+01            -2.382132E+01             6.239166E+00             3.115769E+01             1.934065E+01             3.667236E+01
