                   Degree              F_vhoc_n[N]              F_vhoc_t[N]                 F_1_n[N]                 F_2_n[N]                  F_cx[N]                  F_cy[N]           F_resultant[N]
                   0.0000            -8.535061E-01            -4.907899E+01             3.993014E+00             5.498032E+00             1.505018E+00             2.011741E+01             2.017363E+01
                   0.1800            -2.465715E+00            -5.107987E+01             2.896230E+00             4.704195E+00             1.815120E+00             2.114701E+01             2.122476E+01
                   0.3600            -2.931517E+00            -5.108940E+01             2.479151E+00             4.675195E+00             2.210336E+00             2.120464E+01             2.131953E+01
                   0.5400            -3.394888E+00            -5.109814E+01             2.063744E+00             4.648640E+00             2.606300E+00             2.126303E+01             2.142217E+01
                   0.7200            -3.856571E+00            -5.110757E+01             1.649615E+00             4.623935E+00             3.002806E+00             2.132278E+01             2.153318E+01
                   0.9000            -4.316869E+00            -5.111844E+01             1.236639E+00             4.600772E+00             3.399662E+00             2.138412E+01             2.165267E+01
                   1.0800            -4.775977E+00            -5.113109E+01             8.247129E-01             4.578989E+00             3.796808E+00             2.144715E+01             2.178063E+01
                   1.2600            -5.234072E+00            -5.114571E+01             4.137067E-01             4.558505E+00             4.194286E+00             2.151187E+01             2.191695E+01
                   1.4400            -5.691146E+00            -5.116238E+01             3.647455E-03             4.539274E+00             4.592019E+00             2.157823E+01             2.206143E+01
                   1.6200            -6.147232E+00            -5.118111E+01            -4.054865E-01             4.521271E+00             4.990000E+00             2.164615E+01             2.221387E+01
                   1.8000            -6.602319E+00            -5.120189E+01            -8.136798E-01             4.504481E+00             5.388196E+00             2.171555E+01             2.237405E+01
                   1.9800            -7.056451E+00            -5.122473E+01            -1.220974E+00             4.488893E+00             5.786635E+00             2.178634E+01             2.254174E+01
                   2.1600            -7.509591E+00            -5.124960E+01            -1.627332E+00             4.474500E+00             6.185271E+00             2.185842E+01             2.271669E+01
                   2.3400            -7.961755E+00            -5.127648E+01            -2.032773E+00             4.461298E+00             6.584115E+00             2.193169E+01             2.289868E+01
                   2.5200            -8.412926E+00            -5.130534E+01            -2.437281E+00             4.449280E+00             6.983146E+00             2.200604E+01             2.308745E+01
                   2.7000            -8.863098E+00            -5.133616E+01            -2.840850E+00             4.438442E+00             7.382353E+00             2.208139E+01             2.328276E+01
                   2.8800            -9.312274E+00            -5.136892E+01            -3.243485E+00             4.428782E+00             7.781737E+00             2.215763E+01             2.348437E+01
                   3.0600            -9.760433E+00            -5.140358E+01            -3.645170E+00             4.420294E+00             8.181276E+00             2.223465E+01             2.369204E+01
                   3.2400            -1.020758E+01            -5.144014E+01            -4.045907E+00             4.412975E+00             8.580972E+00             2.231236E+01             2.390554E+01
                   3.4200            -1.065370E+01            -5.147856E+01            -4.445693E+00             4.406823E+00             8.980820E+00             2.239066E+01             2.412461E+01
                   3.6000            -1.109880E+01            -5.151882E+01            -4.844521E+00             4.401833E+00             9.380809E+00             2.246945E+01             2.434904E+01
                   3.7800            -1.154286E+01            -5.156089E+01            -5.242383E+00             4.398001E+00             9.780931E+00             2.254862E+01             2.457859E+01
                   3.9600            -1.198588E+01            -5.160474E+01            -5.639282E+00             4.395324E+00             1.018119E+01             2.262807E+01             2.481303E+01
                   4.1400            -1.242785E+01            -5.165036E+01            -6.035207E+00             4.393796E+00             1.058156E+01             2.270771E+01             2.505214E+01
                   4.3200            -1.286877E+01            -5.169771E+01            -6.430160E+00             4.393412E+00             1.098206E+01             2.278743E+01             2.529571E+01
                   4.5000            -1.330863E+01            -5.174676E+01            -6.824134E+00             4.394164E+00             1.138267E+01             2.286713E+01             2.554351E+01
                   4.6800            -1.374743E+01            -5.179748E+01            -7.217134E+00             4.396042E+00             1.178339E+01             2.294671E+01             2.579535E+01
                   4.8600            -1.418517E+01            -5.184982E+01            -7.609162E+00             4.399031E+00             1.218421E+01             2.302608E+01             2.605102E+01
                   5.0400            -1.462187E+01            -5.190373E+01            -8.000226E+00             4.403108E+00             1.258513E+01             2.310514E+01             2.631032E+01
                   5.2200            -1.505753E+01            -5.195915E+01            -8.390344E+00             4.408236E+00             1.298612E+01             2.318380E+01             2.657307E+01
                   5.4000            -1.549221E+01            -5.201595E+01            -8.779561E+00             4.414344E+00             1.338716E+01             2.326199E+01             2.683908E+01
                   5.5800            -1.592601E+01            -5.207392E+01            -9.167968E+00             4.421287E+00             1.378821E+01             2.333967E+01             2.710820E+01
                   5.7600            -1.635915E+01            -5.213263E+01            -9.555783E+00             4.428752E+00             1.418915E+01             2.341687E+01             2.738032E+01
                   5.9400            -1.679192E+01            -5.219153E+01            -9.943269E+00             4.436347E+00             1.458986E+01             2.349369E+01             2.765533E+01
                   6.1200            -1.722444E+01            -5.225039E+01            -1.033053E+01             4.443913E+00             1.499027E+01             2.357017E+01             2.793316E+01
                   6.3000            -1.765671E+01            -5.230917E+01            -1.071759E+01             4.451430E+00             1.539036E+01             2.364631E+01             2.821367E+01
                   6.4800            -1.808871E+01            -5.236785E+01            -1.110441E+01             4.458900E+00             1.579013E+01             2.372208E+01             2.849676E+01
                   6.6600            -1.852042E+01            -5.242642E+01            -1.149101E+01             4.466327E+00             1.618958E+01             2.379745E+01             2.878231E+01
                   6.8400            -1.895183E+01            -5.248484E+01            -1.187736E+01             4.473714E+00             1.658870E+01             2.387242E+01             2.907021E+01
                   7.0200            -1.938292E+01            -5.254312E+01            -1.226345E+01             4.481066E+00             1.698748E+01             2.394696E+01             2.936037E+01
                   7.2000            -1.981367E+01            -5.260123E+01            -1.264929E+01             4.488386E+00             1.738592E+01             2.402104E+01             2.965266E+01
                   7.3800            -2.024407E+01            -5.265916E+01            -1.303485E+01             4.495679E+00             1.778401E+01             2.409464E+01             2.994700E+01
                   7.5600            -2.067411E+01            -5.271690E+01            -1.342013E+01             4.502948E+00             1.818175E+01             2.416774E+01             3.024327E+01
                   7.7400            -2.110375E+01            -5.277441E+01            -1.380512E+01             4.510197E+00             1.857914E+01             2.424030E+01             3.054139E+01
                   7.9200            -2.153299E+01            -5.283170E+01            -1.418981E+01             4.517431E+00             1.897617E+01             2.431232E+01             3.084127E+01
                   8.1000            -2.196181E+01            -5.288875E+01            -1.457419E+01             4.524653E+00             1.937283E+01             2.438375E+01             3.114280E+01
                   8.2800            -2.239020E+01            -5.294554E+01            -1.495824E+01             4.531867E+00             1.976912E+01             2.445457E+01             3.144590E+01
                   8.4600            -2.281812E+01            -5.300205E+01            -1.534197E+01             4.539077E+00             2.016504E+01             2.452476E+01             3.175048E+01
                   8.6400            -2.324558E+01            -5.305827E+01            -1.572535E+01             4.546288E+00             2.056059E+01             2.459428E+01             3.205645E+01
                   8.8200            -2.367255E+01            -5.311418E+01            -1.610839E+01             4.553502E+00             2.095575E+01             2.466310E+01             3.236375E+01
                   9.0000            -2.409902E+01            -5.316978E+01            -1.649106E+01             4.560724E+00             2.135053E+01             2.473121E+01             3.267228E+01
                   9.1800            -2.452496E+01            -5.322504E+01            -1.687337E+01             4.567957E+00             2.174492E+01             2.479856E+01             3.298196E+01
                   9.3600            -2.495037E+01            -5.327996E+01            -1.725530E+01             4.575205E+00             2.213892E+01             2.486512E+01             3.329273E+01
                   9.5400            -2.537523E+01            -5.333451E+01            -1.763684E+01             4.582471E+00             2.253252E+01             2.493087E+01             3.360451E+01
                   9.7200            -2.579952E+01            -5.338870E+01            -1.801798E+01             4.589758E+00             2.292573E+01             2.499578E+01             3.391722E+01
                   9.9000            -2.622322E+01            -5.344249E+01            -1.839872E+01             4.597070E+00             2.331854E+01             2.505981E+01             3.423081E+01
                  10.0800            -2.664632E+01            -5.349589E+01            -1.877904E+01             4.604409E+00             2.371094E+01             2.512294E+01             3.454520E+01
                  10.2600            -2.706881E+01            -5.354888E+01            -1.915894E+01             4.611779E+00             2.410294E+01             2.518513E+01             3.486033E+01
                  10.4400            -2.749067E+01            -5.360144E+01            -1.953841E+01             4.619182E+00             2.449453E+01             2.524635E+01             3.517613E+01
                  10.6200            -2.791189E+01            -5.365358E+01            -1.991743E+01             4.626620E+00             2.488571E+01             2.530658E+01             3.549255E+01
                  10.8000            -2.833245E+01            -5.370528E+01            -2.029601E+01             4.634096E+00             2.527647E+01             2.536579E+01             3.580954E+01
                  10.9800            -2.875234E+01            -5.375652E+01            -2.067413E+01             4.641612E+00             2.566682E+01             2.542393E+01             3.612703E+01
                  11.1600            -2.917154E+01            -5.380731E+01            -2.105178E+01             4.649169E+00             2.605675E+01             2.548100E+01             3.644497E+01
                  11.3400            -2.959004E+01            -5.385764E+01            -2.142897E+01             4.656769E+00             2.644626E+01             2.553696E+01             3.676331E+01
                  11.5200            -3.000784E+01            -5.390749E+01            -2.180567E+01             4.664413E+00             2.683535E+01             2.559178E+01             3.708200E+01
                  11.7000            -3.042491E+01            -5.395686E+01            -2.218188E+01             4.672103E+00             2.722402E+01             2.564543E+01             3.740100E+01
                  11.8800            -3.084124E+01            -5.400575E+01            -2.255760E+01             4.679838E+00             2.761225E+01             2.569789E+01             3.772026E+01
                  12.0600            -3.125683E+01            -5.405416E+01            -2.293282E+01             4.687619E+00             2.800006E+01             2.574914E+01             3.803974E+01
                  12.2400            -3.167166E+01            -5.410207E+01            -2.330753E+01             4.695446E+00             2.838744E+01             2.579916E+01             3.835939E+01
                  12.4200            -3.208573E+01            -5.414949E+01            -2.368172E+01             4.703319E+00             2.877439E+01             2.584791E+01             3.867919E+01
                  12.6000            -3.249902E+01            -5.419641E+01            -2.405540E+01             4.711237E+00             2.916090E+01             2.589538E+01             3.899909E+01
                  12.7800            -3.291153E+01            -5.424284E+01            -2.442855E+01             4.719198E+00             2.954697E+01             2.594156E+01             3.931905E+01
                  12.9600            -3.332324E+01            -5.428877E+01            -2.480116E+01             4.727203E+00             2.993261E+01             2.598642E+01             3.963906E+01
                  13.1400            -3.373414E+01            -5.433421E+01            -2.517324E+01             4.735248E+00             3.031780E+01             2.602994E+01             3.995906E+01
                  13.3200            -3.414424E+01            -5.437916E+01            -2.554477E+01             4.743332E+00             3.070255E+01             2.607212E+01             4.027905E+01
                  13.5000            -3.455353E+01            -5.442362E+01            -2.591576E+01             4.751452E+00             3.108685E+01             2.611293E+01             4.059899E+01
                  13.6800            -3.496199E+01            -5.446759E+01            -2.628620E+01             4.759606E+00             3.147071E+01             2.615238E+01             4.091885E+01
                  13.8600            -3.536962E+01            -5.451109E+01            -2.665608E+01             4.767790E+00             3.185411E+01             2.619044E+01             4.123862E+01
                  14.0400            -3.577641E+01            -5.455411E+01            -2.702540E+01             4.776001E+00             3.223706E+01             2.622712E+01             4.155827E+01
                  14.2200            -3.618237E+01            -5.459667E+01            -2.739415E+01             4.784234E+00             3.261955E+01             2.626240E+01             4.187778E+01
                  14.4000            -3.658749E+01            -5.463876E+01            -2.776234E+01             4.792486E+00             3.300158E+01             2.629629E+01             4.219714E+01
                  14.5800            -3.699176E+01            -5.468041E+01            -2.812996E+01             4.800752E+00             3.338314E+01             2.632877E+01             4.251633E+01
                  14.7600            -3.739518E+01            -5.472162E+01            -2.849701E+01             4.809026E+00             3.376424E+01             2.635986E+01             4.283533E+01
                  14.9400            -3.779776E+01            -5.476240E+01            -2.886348E+01             4.817303E+00             3.414486E+01             2.638955E+01             4.315414E+01
                  15.1200            -3.819947E+01            -5.480276E+01            -2.922937E+01             4.825579E+00             3.452501E+01             2.641784E+01             4.347274E+01
                  15.3000            -3.860034E+01            -5.484272E+01            -2.959469E+01             4.833845E+00             3.490468E+01             2.644476E+01             4.379112E+01
                  15.4800            -3.900035E+01            -5.488228E+01            -2.995942E+01             4.842098E+00             3.528386E+01             2.647029E+01             4.410927E+01
                  15.6600            -3.939950E+01            -5.492147E+01            -3.032357E+01             4.850328E+00             3.566256E+01             2.649446E+01             4.442718E+01
                  15.8400            -3.979780E+01            -5.496029E+01            -3.068714E+01             4.858531E+00             3.604076E+01             2.651728E+01             4.474486E+01
                  16.0200            -4.019525E+01            -5.499876E+01            -3.105012E+01             4.866698E+00             3.641846E+01             2.653875E+01             4.506228E+01
                  16.2000            -4.059184E+01            -5.503689E+01            -3.141252E+01             4.874823E+00             3.679565E+01             2.655890E+01             4.537946E+01
                  16.3800            -4.098758E+01            -5.507470E+01            -3.177433E+01             4.882896E+00             3.717233E+01             2.657775E+01             4.569638E+01
                  16.5600            -4.138247E+01            -5.511222E+01            -3.213555E+01             4.890912E+00             3.754850E+01             2.659531E+01             4.601304E+01
                  16.7400            -4.177651E+01            -5.514944E+01            -3.249618E+01             4.898862E+00             3.792414E+01             2.661160E+01             4.632945E+01
                  16.9200            -4.216970E+01            -5.518640E+01            -3.285623E+01             4.906736E+00             3.829925E+01             2.662665E+01             4.664559E+01
                  17.1000            -4.256205E+01            -5.522311E+01            -3.321568E+01             4.914528E+00             3.867383E+01             2.664048E+01             4.696148E+01
                  17.2800            -4.295356E+01            -5.525958E+01            -3.357455E+01             4.922229E+00             3.904786E+01             2.665313E+01             4.727711E+01
                  17.4600            -4.334423E+01            -5.529584E+01            -3.393283E+01             4.929829E+00             3.942134E+01             2.666461E+01             4.759247E+01
