                   Degree           dqdtheta_sc[W]           dqdtheta_dc[W]           dqdtheta_hc[W]       dqdtheta_resoil[W]          dqdtheta_oil[W]
                   0.0000             8.871097E-04             9.344347E+00             0.000000E+00             1.962569E+00             3.140077E+03
                   0.1800             3.297125E-02             9.363253E+00             0.000000E+00             2.032289E+00             3.139978E+03
                   0.3600             5.678924E-02             9.385639E+00             0.000000E+00             1.994093E+00             3.140029E+03
                   0.5400             7.816597E-02             9.405252E+00             0.000000E+00             1.970723E+00             3.140060E+03
                   0.7200             9.826703E-02             9.422384E+00             0.000000E+00             1.956836E+00             3.140077E+03
                   0.9000             1.175677E-01             9.437238E+00             0.000000E+00             1.948778E+00             3.140087E+03
                   1.0800             1.362939E-01             9.449951E+00             0.000000E+00             1.944201E+00             3.140092E+03
                   1.2600             1.545652E-01             9.460613E+00             0.000000E+00             1.941654E+00             3.140095E+03
                   1.4400             1.724540E-01             9.469281E+00             0.000000E+00             1.940272E+00             3.140095E+03
                   1.6200             1.900087E-01             9.475996E+00             0.000000E+00             1.939540E+00             3.140096E+03
                   1.8000             2.072654E-01             9.480791E+00             0.000000E+00             1.939153E+00             3.140095E+03
                   1.9800             2.242528E-01             9.483690E+00             0.000000E+00             1.938932E+00             3.140095E+03
                   2.1600             2.409953E-01             9.484724E+00             0.000000E+00             1.938771E+00             3.140095E+03
                   2.3400             2.575136E-01             9.483925E+00             0.000000E+00             1.938610E+00             3.140095E+03
                   2.5200             2.738260E-01             9.481346E+00             0.000000E+00             1.938414E+00             3.140095E+03
                   2.7000             2.899485E-01             9.477092E+00             0.000000E+00             1.938167E+00             3.140095E+03
                   2.8800             3.058954E-01             9.471483E+00             0.000000E+00             1.937871E+00             3.140096E+03
                   3.0600             3.216794E-01             9.465398E+00             0.000000E+00             1.937558E+00             3.140096E+03
                   3.2400             3.373118E-01             9.459334E+00             0.000000E+00             1.937249E+00             3.140097E+03
                   3.4200             3.528027E-01             9.453317E+00             0.000000E+00             1.936941E+00             3.140097E+03
                   3.6000             3.681613E-01             9.447348E+00             0.000000E+00             1.936634E+00             3.140098E+03
                   3.7800             3.833958E-01             9.441427E+00             0.000000E+00             1.936327E+00             3.140098E+03
                   3.9600             3.985136E-01             9.435553E+00             0.000000E+00             1.936019E+00             3.140099E+03
                   4.1400             4.135216E-01             9.429727E+00             0.000000E+00             1.935710E+00             3.140099E+03
                   4.3200             4.284258E-01             9.423949E+00             0.000000E+00             1.935400E+00             3.140100E+03
                   4.5000             4.432320E-01             9.418218E+00             0.000000E+00             1.935089E+00             3.140101E+03
                   4.6800             4.579454E-01             9.412533E+00             0.000000E+00             1.934777E+00             3.140101E+03
                   4.8600             4.725708E-01             9.406896E+00             0.000000E+00             1.934464E+00             3.140102E+03
                   5.0400             4.871128E-01             9.401306E+00             0.000000E+00             1.934151E+00             3.140102E+03
                   5.2200             5.015756E-01             9.395762E+00             0.000000E+00             1.933837E+00             3.140103E+03
                   5.4000             5.159630E-01             9.390264E+00             0.000000E+00             1.933522E+00             3.140103E+03
                   5.5800             5.302788E-01             9.384812E+00             0.000000E+00             1.933206E+00             3.140104E+03
                   5.7600             5.445265E-01             9.379407E+00             0.000000E+00             1.932891E+00             3.140104E+03
                   5.9400             5.587093E-01             9.374047E+00             0.000000E+00             1.932574E+00             3.140105E+03
                   6.1200             5.728304E-01             9.368732E+00             0.000000E+00             1.932258E+00             3.140106E+03
                   6.3000             5.868928E-01             9.363463E+00             0.000000E+00             1.931942E+00             3.140106E+03
                   6.4800             6.008993E-01             9.358239E+00             0.000000E+00             1.931626E+00             3.140107E+03
                   6.6600             6.148526E-01             9.353061E+00             0.000000E+00             1.931310E+00             3.140107E+03
                   6.8400             6.287553E-01             9.347926E+00             0.000000E+00             1.930994E+00             3.140108E+03
                   7.0200             6.426100E-01             9.342837E+00             0.000000E+00             1.930678E+00             3.140108E+03
                   7.2000             6.564191E-01             9.337792E+00             0.000000E+00             1.930363E+00             3.140109E+03
                   7.3800             6.701848E-01             9.332790E+00             0.000000E+00             1.930049E+00             3.140109E+03
                   7.5600             6.839096E-01             9.327833E+00             0.000000E+00             1.929736E+00             3.140110E+03
                   7.7400             6.975955E-01             9.322920E+00             0.000000E+00             1.929423E+00             3.140111E+03
                   7.9200             7.112446E-01             9.318050E+00             0.000000E+00             1.929111E+00             3.140111E+03
                   8.1000             7.248591E-01             9.313223E+00             0.000000E+00             1.928800E+00             3.140112E+03
                   8.2800             7.384410E-01             9.308439E+00             0.000000E+00             1.928491E+00             3.140112E+03
                   8.4600             7.519922E-01             9.303698E+00             0.000000E+00             1.928182E+00             3.140113E+03
                   8.6400             7.655147E-01             9.299000E+00             0.000000E+00             1.927875E+00             3.140113E+03
                   8.8200             7.790104E-01             9.294344E+00             0.000000E+00             1.927570E+00             3.140114E+03
                   9.0000             7.924811E-01             9.289730E+00             0.000000E+00             1.927266E+00             3.140114E+03
                   9.1800             8.059285E-01             9.285158E+00             0.000000E+00             1.926963E+00             3.140115E+03
                   9.3600             8.193545E-01             9.280627E+00             0.000000E+00             1.926663E+00             3.140115E+03
                   9.5400             8.327607E-01             9.276138E+00             0.000000E+00             1.926364E+00             3.140116E+03
                   9.7200             8.461489E-01             9.271691E+00             0.000000E+00             1.926067E+00             3.140117E+03
                   9.9000             8.595207E-01             9.267284E+00             0.000000E+00             1.925771E+00             3.140117E+03
                  10.0800             8.728777E-01             9.262918E+00             0.000000E+00             1.925478E+00             3.140118E+03
                  10.2600             8.862214E-01             9.258592E+00             0.000000E+00             1.925187E+00             3.140118E+03
                  10.4400             8.995535E-01             9.254307E+00             0.000000E+00             1.924897E+00             3.140119E+03
                  10.6200             9.128754E-01             9.250062E+00             0.000000E+00             1.924610E+00             3.140119E+03
                  10.8000             9.261887E-01             9.245856E+00             0.000000E+00             1.924325E+00             3.140120E+03
                  10.9800             9.394946E-01             9.241690E+00             0.000000E+00             1.924041E+00             3.140120E+03
                  11.1600             9.527946E-01             9.237563E+00             0.000000E+00             1.923760E+00             3.140121E+03
                  11.3400             9.660901E-01             9.233475E+00             0.000000E+00             1.923481E+00             3.140121E+03
                  11.5200             9.793824E-01             9.229426E+00             0.000000E+00             1.923204E+00             3.140122E+03
                  11.7000             9.926727E-01             9.225415E+00             0.000000E+00             1.922929E+00             3.140122E+03
                  11.8800             1.005962E+00             9.221443E+00             0.000000E+00             1.922656E+00             3.140123E+03
                  12.0600             1.019252E+00             9.217509E+00             0.000000E+00             1.922384E+00             3.140123E+03
                  12.2400             1.032544E+00             9.213612E+00             0.000000E+00             1.922115E+00             3.140124E+03
                  12.4200             1.045838E+00             9.209753E+00             0.000000E+00             1.921847E+00             3.140124E+03
                  12.6000             1.059136E+00             9.205931E+00             0.000000E+00             1.921581E+00             3.140125E+03
                  12.7800             1.072439E+00             9.202146E+00             0.000000E+00             1.921316E+00             3.140125E+03
                  12.9600             1.085747E+00             9.198398E+00             0.000000E+00             1.921053E+00             3.140126E+03
                  13.1400             1.099062E+00             9.194686E+00             0.000000E+00             1.920790E+00             3.140126E+03
                  13.3200             1.112383E+00             9.191011E+00             0.000000E+00             1.920529E+00             3.140127E+03
                  13.5000             1.125713E+00             9.187371E+00             0.000000E+00             1.920269E+00             3.140127E+03
                  13.6800             1.139052E+00             9.183768E+00             0.000000E+00             1.920010E+00             3.140128E+03
                  13.8600             1.152400E+00             9.180199E+00             0.000000E+00             1.919751E+00             3.140128E+03
                  14.0400             1.165758E+00             9.176666E+00             0.000000E+00             1.919492E+00             3.140129E+03
                  14.2200             1.179127E+00             9.173168E+00             0.000000E+00             1.919233E+00             3.140129E+03
                  14.4000             1.192506E+00             9.169704E+00             0.000000E+00             1.918975E+00             3.140130E+03
                  14.5800             1.205897E+00             9.166275E+00             0.000000E+00             1.918715E+00             3.140130E+03
                  14.7600             1.219300E+00             9.162880E+00             0.000000E+00             1.918456E+00             3.140130E+03
                  14.9400             1.232714E+00             9.159518E+00             0.000000E+00             1.918195E+00             3.140131E+03
                  15.1200             1.246141E+00             9.156191E+00             0.000000E+00             1.917933E+00             3.140131E+03
                  15.3000             1.259580E+00             9.152897E+00             0.000000E+00             1.917669E+00             3.140132E+03
                  15.4800             1.273031E+00             9.149635E+00             0.000000E+00             1.917404E+00             3.140132E+03
                  15.6600             1.286494E+00             9.146407E+00             0.000000E+00             1.917136E+00             3.140133E+03
                  15.8400             1.299970E+00             9.143211E+00             0.000000E+00             1.916866E+00             3.140133E+03
                  16.0200             1.313459E+00             9.140047E+00             0.000000E+00             1.916593E+00             3.140134E+03
                  16.2000             1.326959E+00             9.136916E+00             0.000000E+00             1.916316E+00             3.140134E+03
                  16.3800             1.340471E+00             9.133816E+00             0.000000E+00             1.916036E+00             3.140135E+03
                  16.5600             1.353994E+00             9.130748E+00             0.000000E+00             1.915752E+00             3.140135E+03
                  16.7400             1.367529E+00             9.127710E+00             0.000000E+00             1.915464E+00             3.140136E+03
                  16.9200             1.381075E+00             9.124704E+00             0.000000E+00             1.915171E+00             3.140136E+03
                  17.1000             1.394630E+00             9.121729E+00             0.000000E+00             1.914873E+00             3.140137E+03
                  17.2800             1.408196E+00             9.118784E+00             0.000000E+00             1.914569E+00             3.140138E+03
                  17.4600             1.421771E+00             9.115869E+00             0.000000E+00             1.914259E+00             3.140138E+03
                  17.6400             1.435355E+00             9.112983E+00             0.000000E+00             1.913943E+00             3.140139E+03
                  17.8200             1.448947E+00             9.110128E+00             0.000000E+00             1.913620E+00             3.140139E+03
                  18.0000             1.462546E+00             9.107302E+00             0.000000E+00             1.913290E+00             3.140140E+03
                  18.1800             1.476152E+00             9.104504E+00             0.000000E+00             1.912952E+00             3.140140E+03
                  18.3600             1.489764E+00             9.101736E+00             0.000000E+00             1.912607E+00             3.140141E+03
                  18.5400             1.503381E+00             9.098996E+00             0.000000E+00             1.912253E+00             3.140142E+03
                  18.7200             1.517002E+00             9.096284E+00             0.000000E+00             1.911890E+00             3.140142E+03
                  18.9000             1.530627E+00             9.093601E+00             0.000000E+00             1.911518E+00             3.140143E+03
                  19.0800             1.544254E+00             9.090944E+00             0.000000E+00             1.911136E+00             3.140144E+03
                  19.2600             1.557883E+00             9.088316E+00             0.000000E+00             1.910744E+00             3.140144E+03
                  19.4400             1.571513E+00             9.085714E+00             0.000000E+00             1.910342E+00             3.140145E+03
                  19.6200             1.585143E+00             9.083139E+00             0.000000E+00             1.909929E+00             3.140146E+03
                  19.8000             1.598772E+00             9.080591E+00             0.000000E+00             1.909505E+00             3.140146E+03
                  19.9800             1.612398E+00             9.078069E+00             0.000000E+00             1.909069E+00             3.140147E+03
                  20.1600             1.626022E+00             9.075574E+00             0.000000E+00             1.908621E+00             3.140148E+03
                  20.3400             1.639642E+00             9.073103E+00             0.000000E+00             1.908160E+00             3.140148E+03
                  20.5200             1.653256E+00             9.070659E+00             0.000000E+00             1.907687E+00             3.140149E+03
                  20.7000             1.666865E+00             9.068239E+00             0.000000E+00             1.907201E+00             3.140150E+03
                  20.8800             1.680467E+00             9.065845E+00             0.000000E+00             1.906701E+00             3.140151E+03
                  21.0600             1.694061E+00             9.063475E+00             0.000000E+00             1.906188E+00             3.140152E+03
                  21.2400             1.707647E+00             9.061129E+00             0.000000E+00             1.905661E+00             3.140153E+03
                  21.4200             1.721222E+00             9.058807E+00             0.000000E+00             1.905119E+00             3.140153E+03
                  21.6000             1.734787E+00             9.056509E+00             0.000000E+00             1.904562E+00             3.140154E+03
                  21.7800             1.748340E+00             9.054235E+00             0.000000E+00             1.903990E+00             3.140155E+03
                  21.9600             1.761880E+00             9.051983E+00             0.000000E+00             1.903403E+00             3.140156E+03
                  22.1400             1.775407E+00             9.049755E+00             0.000000E+00             1.902800E+00             3.140157E+03
                  22.3200             1.788919E+00             9.047549E+00             0.000000E+00             1.902182E+00             3.140158E+03
                  22.5000             1.802416E+00             9.045365E+00             0.000000E+00             1.901547E+00             3.140159E+03
                  22.6800             1.815897E+00             9.043204E+00             0.000000E+00             1.900896E+00             3.140160E+03
                  22.8600             1.829361E+00             9.041064E+00             0.000000E+00             1.900228E+00             3.140161E+03
                  23.0400             1.842807E+00             9.038945E+00             0.000000E+00             1.899543E+00             3.140162E+03
                  23.2200             1.856234E+00             9.036848E+00             0.000000E+00             1.898841E+00             3.140163E+03
                  23.4000             1.869642E+00             9.034772E+00             0.000000E+00             1.898122E+00             3.140164E+03
