                   Degree              F_vhoc_n[N]              F_vhoc_t[N]                 F_1_n[N]                 F_2_n[N]                  F_cx[N]                  F_cy[N]           F_resultant[N]
                   0.0000            -1.103069E+00            -4.880075E+01             3.771077E+00             5.266604E+00             1.495527E+00             2.003773E+01             2.009347E+01
                   0.1800            -3.387193E+00            -5.256639E+01             2.420115E+00             3.766593E+00             1.353845E+00             2.193418E+01             2.197592E+01
                   0.3600            -3.681208E+00            -5.256354E+01             2.174441E+00             3.728593E+00             1.568767E+00             2.200454E+01             2.206039E+01
                   0.5400            -3.965101E+00            -5.254782E+01             1.934828E+00             3.699259E+00             1.786163E+00             2.206942E+01             2.214158E+01
                   0.7200            -4.245161E+00            -5.253156E+01             1.697900E+00             3.673764E+00             2.004576E+00             2.213462E+01             2.222521E+01
                   0.9000            -4.523039E+00            -5.251806E+01             1.462791E+00             3.650801E+00             2.223566E+00             2.220163E+01             2.231270E+01
                   1.0800            -4.799181E+00            -5.250814E+01             1.229262E+00             3.630024E+00             2.443020E+00             2.227072E+01             2.240431E+01
                   1.2600            -5.073748E+00            -5.250198E+01             9.972061E-01             3.611338E+00             2.662948E+00             2.234184E+01             2.249998E+01
                   1.4400            -5.346740E+00            -5.249958E+01             7.666381E-01             3.594716E+00             2.883309E+00             2.241486E+01             2.259955E+01
                   1.6200            -5.618169E+00            -5.250091E+01             5.375488E-01             3.580149E+00             3.104103E+00             2.248962E+01             2.270283E+01
                   1.8000            -5.888023E+00            -5.250593E+01             3.099497E-01             3.567631E+00             3.325313E+00             2.256594E+01             2.280963E+01
                   1.9800            -6.156323E+00            -5.251458E+01             8.381949E-02             3.557162E+00             3.546959E+00             2.264365E+01             2.291977E+01
                   2.1600            -6.423049E+00            -5.252682E+01            -1.408215E-01             3.548735E+00             3.769020E+00             2.272258E+01             2.303305E+01
                   2.3400            -6.688210E+00            -5.254258E+01            -3.639840E-01             3.542348E+00             3.991505E+00             2.280256E+01             2.314927E+01
                   2.5200            -6.951802E+00            -5.256182E+01            -5.856633E-01             3.537991E+00             4.214405E+00             2.288341E+01             2.326825E+01
                   2.7000            -7.213829E+00            -5.258447E+01            -8.058643E-01             3.535652E+00             4.437715E+00             2.296496E+01             2.338980E+01
                   2.8800            -7.474314E+00            -5.261044E+01            -1.024607E+00             3.535302E+00             4.661433E+00             2.304704E+01             2.351372E+01
                   3.0600            -7.733294E+00            -5.263961E+01            -1.241927E+00             3.536877E+00             4.885535E+00             2.312948E+01             2.363982E+01
                   3.2400            -7.990945E+00            -5.267162E+01            -1.457982E+00             3.540151E+00             5.109957E+00             2.321212E+01             2.376792E+01
                   3.4200            -8.248017E+00            -5.270516E+01            -1.673446E+00             3.544161E+00             5.334402E+00             2.329486E+01             2.389783E+01
                   3.6000            -8.505155E+00            -5.273906E+01            -1.888901E+00             3.548069E+00             5.558603E+00             2.337769E+01             2.402945E+01
                   3.7800            -8.762379E+00            -5.277323E+01            -2.104372E+00             3.551834E+00             5.782540E+00             2.346060E+01             2.416273E+01
                   3.9600            -9.019671E+00            -5.280763E+01            -2.319850E+00             3.555466E+00             6.006217E+00             2.354358E+01             2.429763E+01
                   4.1400            -9.277009E+00            -5.284224E+01            -2.535322E+00             3.558975E+00             6.229628E+00             2.362660E+01             2.443409E+01
                   4.3200            -9.534374E+00            -5.287702E+01            -2.750777E+00             3.562371E+00             6.452773E+00             2.370966E+01             2.457206E+01
                   4.5000            -9.791745E+00            -5.291194E+01            -2.966204E+00             3.565665E+00             6.675650E+00             2.379273E+01             2.471150E+01
                   4.6800            -1.004910E+01            -5.294698E+01            -3.181592E+00             3.568867E+00             6.898258E+00             2.387579E+01             2.485235E+01
                   4.8600            -1.030642E+01            -5.298210E+01            -3.396930E+00             3.571988E+00             7.120596E+00             2.395882E+01             2.499456E+01
                   5.0400            -1.056369E+01            -5.301727E+01            -3.612206E+00             3.575038E+00             7.342663E+00             2.404180E+01             2.513807E+01
                   5.2200            -1.082088E+01            -5.305247E+01            -3.827409E+00             3.578028E+00             7.564458E+00             2.412469E+01             2.528283E+01
                   5.4000            -1.107798E+01            -5.308765E+01            -4.042528E+00             3.580969E+00             7.785980E+00             2.420746E+01             2.542878E+01
                   5.5800            -1.133495E+01            -5.312279E+01            -4.257549E+00             3.583871E+00             8.007227E+00             2.429010E+01             2.557586E+01
                   5.7600            -1.159179E+01            -5.315786E+01            -4.472464E+00             3.586745E+00             8.228202E+00             2.437256E+01             2.572401E+01
                   5.9400            -1.184846E+01            -5.319283E+01            -4.687258E+00             3.589603E+00             8.448901E+00             2.445481E+01             2.587318E+01
                   6.1200            -1.210495E+01            -5.322766E+01            -4.901922E+00             3.592456E+00             8.669326E+00             2.453681E+01             2.602330E+01
                   6.3000            -1.236124E+01            -5.326232E+01            -5.116443E+00             3.595314E+00             8.889476E+00             2.461853E+01             2.617432E+01
                   6.4800            -1.261730E+01            -5.329678E+01            -5.330809E+00             3.598190E+00             9.109352E+00             2.469993E+01             2.632616E+01
                   6.6600            -1.287311E+01            -5.333102E+01            -5.545009E+00             3.601093E+00             9.328955E+00             2.478096E+01             2.647877E+01
                   6.8400            -1.312864E+01            -5.336498E+01            -5.759030E+00             3.604036E+00             9.548285E+00             2.486158E+01             2.663209E+01
                   7.0200            -1.338388E+01            -5.339866E+01            -5.972860E+00             3.607031E+00             9.767343E+00             2.494175E+01             2.678604E+01
                   7.2000            -1.363881E+01            -5.343200E+01            -6.186488E+00             3.610088E+00             9.986130E+00             2.502142E+01             2.694057E+01
                   7.3800            -1.389340E+01            -5.346499E+01            -6.399902E+00             3.613219E+00             1.020465E+01             2.510054E+01             2.709561E+01
                   7.5600            -1.414762E+01            -5.349758E+01            -6.613091E+00             3.616435E+00             1.042290E+01             2.517906E+01             2.725109E+01
                   7.7400            -1.440146E+01            -5.352976E+01            -6.826040E+00             3.619749E+00             1.064089E+01             2.525693E+01             2.740695E+01
                   7.9200            -1.465489E+01            -5.356147E+01            -7.038740E+00             3.623171E+00             1.085861E+01             2.533409E+01             2.756312E+01
                   8.1000            -1.490790E+01            -5.359271E+01            -7.251178E+00             3.626713E+00             1.107608E+01             2.541049E+01             2.771954E+01
                   8.2800            -1.516045E+01            -5.362342E+01            -7.463342E+00             3.630386E+00             1.129329E+01             2.548608E+01             2.787613E+01
                   8.4600            -1.541253E+01            -5.365360E+01            -7.675220E+00             3.634202E+00             1.151024E+01             2.556080E+01             2.803284E+01
                   8.6400            -1.566411E+01            -5.368319E+01            -7.886801E+00             3.638171E+00             1.172695E+01             2.563458E+01             2.818959E+01
                   8.8200            -1.591517E+01            -5.371218E+01            -8.098073E+00             3.642304E+00             1.194341E+01             2.570738E+01             2.834632E+01
                   9.0000            -1.616569E+01            -5.374054E+01            -8.309026E+00             3.646613E+00             1.215962E+01             2.577912E+01             2.850297E+01
                   9.1800            -1.641566E+01            -5.376823E+01            -8.519647E+00             3.651107E+00             1.237560E+01             2.584976E+01             2.865947E+01
                   9.3600            -1.666504E+01            -5.379524E+01            -8.729926E+00             3.655797E+00             1.259135E+01             2.591922E+01             2.881576E+01
                   9.5400            -1.691381E+01            -5.382153E+01            -8.939852E+00             3.660694E+00             1.280686E+01             2.598745E+01             2.897177E+01
                   9.7200            -1.716197E+01            -5.384708E+01            -9.149413E+00             3.665806E+00             1.302216E+01             2.605439E+01             2.912744E+01
                   9.9000            -1.740948E+01            -5.387187E+01            -9.358601E+00             3.671143E+00             1.323723E+01             2.611997E+01             2.928271E+01
                  10.0800            -1.765632E+01            -5.389587E+01            -9.567403E+00             3.676714E+00             1.345209E+01             2.618413E+01             2.943752E+01
                  10.2600            -1.790249E+01            -5.391905E+01            -9.775812E+00             3.682528E+00             1.366675E+01             2.624682E+01             2.959181E+01
                  10.4400            -1.814796E+01            -5.394141E+01            -9.983817E+00             3.688593E+00             1.388120E+01             2.630796E+01             2.974553E+01
                  10.6200            -1.839271E+01            -5.396292E+01            -1.019141E+01             3.694916E+00             1.409546E+01             2.636750E+01             2.989862E+01
                  10.8000            -1.863673E+01            -5.398355E+01            -1.039858E+01             3.701506E+00             1.430953E+01             2.642539E+01             3.005102E+01
                  10.9800            -1.888000E+01            -5.400331E+01            -1.060532E+01             3.708368E+00             1.452342E+01             2.648156E+01             3.020269E+01
                  11.1600            -1.912251E+01            -5.402216E+01            -1.081162E+01             3.715508E+00             1.473713E+01             2.653595E+01             3.035358E+01
                  11.3400            -1.936424E+01            -5.404010E+01            -1.101747E+01             3.722933E+00             1.495067E+01             2.658852E+01             3.050363E+01
                  11.5200            -1.960518E+01            -5.405711E+01            -1.122287E+01             3.730646E+00             1.516405E+01             2.663920E+01             3.065282E+01
                  11.7000            -1.984531E+01            -5.407319E+01            -1.142781E+01             3.738653E+00             1.537727E+01             2.668795E+01             3.080109E+01
                  11.8800            -2.008463E+01            -5.408833E+01            -1.163229E+01             3.746957E+00             1.559033E+01             2.673472E+01             3.094840E+01
                  12.0600            -2.032312E+01            -5.410252E+01            -1.183629E+01             3.755561E+00             1.580326E+01             2.677945E+01             3.109473E+01
                  12.2400            -2.056078E+01            -5.411575E+01            -1.203981E+01             3.764466E+00             1.601604E+01             2.682211E+01             3.124003E+01
                  12.4200            -2.079760E+01            -5.412803E+01            -1.224286E+01             3.773675E+00             1.622869E+01             2.686266E+01             3.138428E+01
                  12.6000            -2.103356E+01            -5.413936E+01            -1.244541E+01             3.783188E+00             1.644122E+01             2.690105E+01             3.152745E+01
                  12.7800            -2.126867E+01            -5.414972E+01            -1.264748E+01             3.793006E+00             1.665362E+01             2.693725E+01             3.166952E+01
                  12.9600            -2.150292E+01            -5.415914E+01            -1.284905E+01             3.803126E+00             1.686591E+01             2.697122E+01             3.181047E+01
                  13.1400            -2.173630E+01            -5.416761E+01            -1.305013E+01             3.813548E+00             1.707809E+01             2.700294E+01             3.195028E+01
                  13.3200            -2.196882E+01            -5.417514E+01            -1.325071E+01             3.824270E+00             1.729017E+01             2.703239E+01             3.208894E+01
                  13.5000            -2.220046E+01            -5.418175E+01            -1.345078E+01             3.835287E+00             1.750214E+01             2.705953E+01             3.222644E+01
                  13.6800            -2.243124E+01            -5.418744E+01            -1.365036E+01             3.846597E+00             1.771402E+01             2.708435E+01             3.236277E+01
                  13.8600            -2.266115E+01            -5.419222E+01            -1.384944E+01             3.858194E+00             1.792581E+01             2.710684E+01             3.249793E+01
                  14.0400            -2.289019E+01            -5.419612E+01            -1.404802E+01             3.870072E+00             1.813751E+01             2.712698E+01             3.263193E+01
                  14.2200            -2.311837E+01            -5.419915E+01            -1.424610E+01             3.882226E+00             1.834913E+01             2.714477E+01             3.276476E+01
                  14.4000            -2.334569E+01            -5.420132E+01            -1.444368E+01             3.894649E+00             1.856067E+01             2.716021E+01             3.289643E+01
                  14.5800            -2.357216E+01            -5.420267E+01            -1.464077E+01             3.907333E+00             1.877212E+01             2.717329E+01             3.302696E+01
                  14.7600            -2.379778E+01            -5.420320E+01            -1.483736E+01             3.920268E+00             1.898350E+01             2.718403E+01             3.315637E+01
                  14.9400            -2.402256E+01            -5.420296E+01            -1.503346E+01             3.933447E+00             1.919481E+01             2.719242E+01             3.328466E+01
                  15.1200            -2.424651E+01            -5.420195E+01            -1.522908E+01             3.946860E+00             1.940604E+01             2.719849E+01             3.341186E+01
                  15.3000            -2.446964E+01            -5.420022E+01            -1.542420E+01             3.960495E+00             1.961719E+01             2.720225E+01             3.353799E+01
                  15.4800            -2.469195E+01            -5.419778E+01            -1.561885E+01             3.974342E+00             1.982827E+01             2.720373E+01             3.366309E+01
                  15.6600            -2.491346E+01            -5.419467E+01            -1.581303E+01             3.988389E+00             2.003928E+01             2.720294E+01             3.378717E+01
                  15.8400            -2.513419E+01            -5.419091E+01            -1.600674E+01             4.002625E+00             2.025021E+01             2.719992E+01             3.391028E+01
                  16.0200            -2.535414E+01            -5.418655E+01            -1.619998E+01             4.017036E+00             2.046107E+01             2.719470E+01             3.403244E+01
                  16.2000            -2.557332E+01            -5.418162E+01            -1.639276E+01             4.031610E+00             2.067184E+01             2.718731E+01             3.415370E+01
                  16.3800            -2.579176E+01            -5.417614E+01            -1.658509E+01             4.046333E+00             2.088253E+01             2.717780E+01             3.427409E+01
                  16.5600            -2.600946E+01            -5.417015E+01            -1.677697E+01             4.061191E+00             2.109314E+01             2.716621E+01             3.439365E+01
                  16.7400            -2.622644E+01            -5.416370E+01            -1.696842E+01             4.076170E+00             2.130366E+01             2.715257E+01             3.451243E+01
                  16.9200            -2.644272E+01            -5.415680E+01            -1.715943E+01             4.091255E+00             2.151408E+01             2.713695E+01             3.463047E+01
                  17.1000            -2.665831E+01            -5.414951E+01            -1.735002E+01             4.106433E+00             2.172440E+01             2.711939E+01             3.474782E+01
                  17.2800            -2.687323E+01            -5.414185E+01            -1.754018E+01             4.121687E+00             2.193462E+01             2.709995E+01             3.486452E+01
                  17.4600            -2.708750E+01            -5.413387E+01            -1.772994E+01             4.137003E+00             2.214473E+01             2.707868E+01             3.498063E+01
