                             Degree                         Volume[m3]                    I.Pressure[kPa]                   I.Temperature[K]                         I.Mass[kg]
                             0.0000                       5.000000E-08                       1.010003E+02                       3.036732E+02                       5.794971E-08
                             0.1800                       5.005066E-08                       1.010003E+02                       3.036732E+02                       5.800843E-08
                             0.3600                       5.009648E-08                       1.010003E+02                       3.036732E+02                       5.806153E-08
                             0.5400                       5.013763E-08                       1.010003E+02                       3.036732E+02                       5.810922E-08
                             0.7200                       5.017429E-08                       1.010003E+02                       3.036732E+02                       5.815172E-08
                             0.9000                       5.020665E-08                       1.010003E+02                       3.036732E+02                       5.818923E-08
                             1.0800                       5.023489E-08                       1.010003E+02                       3.036732E+02                       5.822195E-08
                             1.2600                       5.025918E-08                       1.010003E+02                       3.036732E+02                       5.825010E-08
                             1.4400                       5.027970E-08                       1.010003E+02                       3.036732E+02                       5.827388E-08
                             1.6200                       5.029663E-08                       1.010003E+02                       3.036732E+02                       5.829350E-08
                             1.8000                       5.031015E-08                       1.010003E+02                       3.036732E+02                       5.830918E-08
                             1.9800                       5.032045E-08                       1.010003E+02                       3.036732E+02                       5.832111E-08
                             2.1600                       5.032769E-08                       1.010003E+02                       3.036732E+02                       5.832951E-08
                             2.3400                       5.033207E-08                       1.010003E+02                       3.036732E+02                       5.833458E-08
                             2.5200                       5.033375E-08                       1.010003E+02                       3.036732E+02                       5.833653E-08
                             2.7000                       5.033292E-08                       1.010003E+02                       3.036732E+02                       5.833557E-08
                             2.8800                       5.032977E-08                       1.010003E+02                       3.036732E+02                       5.833191E-08
                             3.0600                       5.032446E-08                       1.010003E+02                       3.036732E+02                       5.832576E-08
                             3.2400                       5.031718E-08                       1.010003E+02                       3.036732E+02                       5.831733E-08
                             3.4200                       5.030811E-08                       1.010003E+02                       3.036732E+02                       5.830681E-08
                             3.6000                       5.029743E-08                       1.010003E+02                       3.036732E+02                       5.829443E-08
                             3.7800                       5.028532E-08                       1.010003E+02                       3.036732E+02                       5.828040E-08
                             3.9600                       5.027195E-08                       1.010003E+02                       3.036732E+02                       5.826491E-08
                             4.1400                       5.025752E-08                       1.010003E+02                       3.036732E+02                       5.824817E-08
                             4.3200                       5.024219E-08                       1.010003E+02                       3.036732E+02                       5.823041E-08
                             4.5000                       5.022615E-08                       1.010003E+02                       3.036732E+02                       5.821182E-08
                             4.6800                       5.020957E-08                       1.010003E+02                       3.036732E+02                       5.819261E-08
                             4.8600                       5.019265E-08                       1.010003E+02                       3.036732E+02                       5.817299E-08
                             5.0400                       5.017555E-08                       1.010003E+02                       3.036732E+02                       5.815317E-08
                             5.2200                       5.015845E-08                       1.010003E+02                       3.036732E+02                       5.813336E-08
                             5.4000                       5.014155E-08                       1.010003E+02                       3.036732E+02                       5.811377E-08
                             5.5800                       5.012501E-08                       1.010003E+02                       3.036732E+02                       5.809460E-08
                             5.7600                       5.010902E-08                       1.010003E+02                       3.036732E+02                       5.807607E-08
                             5.9400                       5.009376E-08                       1.010003E+02                       3.036732E+02                       5.805838E-08
                             6.1200                       5.007940E-08                       1.010003E+02                       3.036732E+02                       5.804173E-08
                             6.3000                       5.006612E-08                       1.010003E+02                       3.036732E+02                       5.802635E-08
                             6.4800                       5.005412E-08                       1.010003E+02                       3.036732E+02                       5.801243E-08
                             6.6600                       5.004355E-08                       1.010003E+02                       3.036732E+02                       5.800019E-08
                             6.8400                       5.003462E-08                       1.010003E+02                       3.036732E+02                       5.798983E-08
                             7.0200                       5.002748E-08                       1.010003E+02                       3.036732E+02                       5.798157E-08
                             7.2000                       5.002233E-08                       1.010003E+02                       3.036732E+02                       5.797560E-08
                             7.3800                       5.001935E-08                       1.010003E+02                       3.036732E+02                       5.797214E-08
                             7.5600                       5.001871E-08                       1.010003E+02                       3.036732E+02                       5.797140E-08
                             7.7400                       5.002059E-08                       1.010003E+02                       3.036732E+02                       5.797358E-08
                             7.9200                       5.002517E-08                       1.010003E+02                       3.036732E+02                       5.797889E-08
                             8.1000                       5.003263E-08                       1.010003E+02                       3.036732E+02                       5.798754E-08
                             8.2800                       5.004316E-08                       1.010003E+02                       3.036732E+02                       5.799974E-08
                             8.4600                       5.005692E-08                       1.010003E+02                       3.036732E+02                       5.801569E-08
                             8.6400                       5.007411E-08                       1.010003E+02                       3.036732E+02                       5.803560E-08
                             8.8200                       5.009489E-08                       1.010003E+02                       3.036732E+02                       5.805969E-08
                             9.0000                       5.011945E-08                       1.010003E+02                       3.036732E+02                       5.808815E-08
                             9.1800                       5.014796E-08                       1.010003E+02                       3.036732E+02                       5.812120E-08
                             9.3600                       5.018061E-08                       1.010003E+02                       3.036732E+02                       5.815904E-08
                             9.5400                       5.021757E-08                       1.010003E+02                       3.036732E+02                       5.820188E-08
                             9.7200                       5.025903E-08                       1.010003E+02                       3.036732E+02                       5.824993E-08
                             9.9000                       5.030516E-08                       1.010003E+02                       3.036732E+02                       5.830339E-08
                            10.0800                       5.035613E-08                       1.010003E+02                       3.036732E+02                       5.836247E-08
                            10.2600                       5.041214E-08                       1.010003E+02                       3.036732E+02                       5.842738E-08
                            10.4400                       5.047335E-08                       1.010003E+02                       3.036732E+02                       5.849832E-08
                            10.6200                       5.053994E-08                       1.010003E+02                       3.036732E+02                       5.857550E-08
                            10.8000                       5.061210E-08                       1.010003E+02                       3.036732E+02                       5.865914E-08
                            10.9800                       5.069000E-08                       1.010003E+02                       3.036732E+02                       5.874942E-08
                            11.1600                       5.077382E-08                       1.010003E+02                       3.036732E+02                       5.884657E-08
                            11.3400                       5.086374E-08                       1.010003E+02                       3.036732E+02                       5.895078E-08
                            11.5200                       5.095993E-08                       1.010003E+02                       3.036732E+02                       5.906227E-08
                            11.7000                       5.106258E-08                       1.010003E+02                       3.036732E+02                       5.918123E-08
                            11.8800                       5.117185E-08                       1.010003E+02                       3.036732E+02                       5.930788E-08
                            12.0600                       5.128793E-08                       1.010003E+02                       3.036732E+02                       5.944242E-08
                            12.2400                       5.141100E-08                       1.010003E+02                       3.036732E+02                       5.958506E-08
                            12.4200                       5.154123E-08                       1.010003E+02                       3.036732E+02                       5.973599E-08
                            12.6000                       5.167880E-08                       1.010003E+02                       3.036732E+02                       5.989543E-08
                            12.7800                       5.182389E-08                       1.010003E+02                       3.036732E+02                       6.006359E-08
                            12.9600                       5.197667E-08                       1.010003E+02                       3.036732E+02                       6.024066E-08
                            13.1400                       5.213732E-08                       1.010003E+02                       3.036732E+02                       6.042685E-08
                            13.3200                       5.230601E-08                       1.010003E+02                       3.036732E+02                       6.062237E-08
                            13.5000                       5.248293E-08                       1.010003E+02                       3.036732E+02                       6.082742E-08
                            13.6800                       5.266825E-08                       1.010003E+02                       3.036732E+02                       6.104220E-08
                            13.8600                       5.286215E-08                       1.010003E+02                       3.036732E+02                       6.126692E-08
                            14.0400                       5.306479E-08                       1.010003E+02                       3.036732E+02                       6.150179E-08
                            14.2200                       5.327637E-08                       1.010003E+02                       3.036732E+02                       6.174701E-08
                            14.4000                       5.349705E-08                       1.010003E+02                       3.036732E+02                       6.200277E-08
                            14.5800                       5.372700E-08                       1.010003E+02                       3.036732E+02                       6.226929E-08
                            14.7600                       5.396642E-08                       1.010003E+02                       3.036732E+02                       6.254677E-08
                            14.9400                       5.421546E-08                       1.010003E+02                       3.036732E+02                       6.283541E-08
                            15.1200                       5.447431E-08                       1.010003E+02                       3.036732E+02                       6.313541E-08
                            15.3000                       5.474313E-08                       1.010003E+02                       3.036732E+02                       6.344698E-08
                            15.4800                       5.502212E-08                       1.010003E+02                       3.036732E+02                       6.377032E-08
                            15.6600                       5.531143E-08                       1.010003E+02                       3.036732E+02                       6.410563E-08
                            15.8400                       5.561124E-08                       1.010003E+02                       3.036732E+02                       6.445311E-08
                            16.0200                       5.592174E-08                       1.010003E+02                       3.036732E+02                       6.481298E-08
                            16.2000                       5.624309E-08                       1.010003E+02                       3.036732E+02                       6.518542E-08
                            16.3800                       5.657546E-08                       1.010003E+02                       3.036732E+02                       6.557064E-08
                            16.5600                       5.691904E-08                       1.010003E+02                       3.036732E+02                       6.596884E-08
                            16.7400                       5.727398E-08                       1.010003E+02                       3.036732E+02                       6.638022E-08
                            16.9200                       5.764048E-08                       1.010003E+02                       3.036732E+02                       6.680499E-08
                            17.1000                       5.801870E-08                       1.010003E+02                       3.036732E+02                       6.724334E-08
                            17.2800                       5.840881E-08                       1.010003E+02                       3.036732E+02                       6.769548E-08
                            17.4600                       5.881099E-08                       1.010003E+02                       3.036732E+02                       6.816160E-08
                            17.6400                       5.922540E-08                       1.010003E+02                       3.036732E+02                       6.864190E-08
                            17.8200                       5.965223E-08                       1.010003E+02                       3.036732E+02                       6.913660E-08
                            18.0000                       6.009165E-08                       1.010003E+02                       3.036732E+02                       6.964587E-08
                            18.1800                       6.054382E-08                       1.010003E+02                       3.036732E+02                       7.016994E-08
                            18.3600                       6.100891E-08                       1.010003E+02                       3.036732E+02                       7.070898E-08
                            18.5400                       6.148711E-08                       1.010003E+02                       3.036732E+02                       7.126321E-08
                            18.7200                       6.197858E-08                       1.010003E+02                       3.036732E+02                       7.183282E-08
                            18.9000                       6.248349E-08                       1.010003E+02                       3.036732E+02                       7.241801E-08
                            19.0800                       6.300202E-08                       1.010003E+02                       3.036732E+02                       7.301898E-08
                            19.2600                       6.353433E-08                       1.010003E+02                       3.036732E+02                       7.363592E-08
                            19.4400                       6.408059E-08                       1.010003E+02                       3.036732E+02                       7.426904E-08
                            19.6200                       6.464098E-08                       1.010003E+02                       3.036732E+02                       7.491853E-08
                            19.8000                       6.521567E-08                       1.010003E+02                       3.036732E+02                       7.558459E-08
                            19.9800                       6.580482E-08                       1.010003E+02                       3.036732E+02                       7.626741E-08
