                             Degree                         Volume[m3]                    I.Pressure[kPa]                   I.Temperature[K]                         I.Mass[kg]
                             0.0000                       5.000000E-08                       1.007480E+02                       3.039992E+02                       5.774280E-08
                             0.1800                       5.005066E-08                       1.007480E+02                       3.039992E+02                       5.780130E-08
                             0.3600                       5.009648E-08                       1.007480E+02                       3.039992E+02                       5.785421E-08
                             0.5400                       5.013763E-08                       1.007480E+02                       3.039992E+02                       5.790174E-08
                             0.7200                       5.017429E-08                       1.007480E+02                       3.039992E+02                       5.794408E-08
                             0.9000                       5.020665E-08                       1.007480E+02                       3.039992E+02                       5.798145E-08
                             1.0800                       5.023489E-08                       1.007480E+02                       3.039992E+02                       5.801406E-08
                             1.2600                       5.025918E-08                       1.007480E+02                       3.039992E+02                       5.804211E-08
                             1.4400                       5.027970E-08                       1.007480E+02                       3.039992E+02                       5.806581E-08
                             1.6200                       5.029663E-08                       1.007480E+02                       3.039992E+02                       5.808536E-08
                             1.8000                       5.031015E-08                       1.007480E+02                       3.039992E+02                       5.810098E-08
                             1.9800                       5.032045E-08                       1.007480E+02                       3.039992E+02                       5.811287E-08
                             2.1600                       5.032769E-08                       1.007480E+02                       3.039992E+02                       5.812123E-08
                             2.3400                       5.033207E-08                       1.007480E+02                       3.039992E+02                       5.812629E-08
                             2.5200                       5.033375E-08                       1.007480E+02                       3.039992E+02                       5.812823E-08
                             2.7000                       5.033292E-08                       1.007480E+02                       3.039992E+02                       5.812728E-08
                             2.8800                       5.032977E-08                       1.007480E+02                       3.039992E+02                       5.812363E-08
                             3.0600                       5.032446E-08                       1.007480E+02                       3.039992E+02                       5.811750E-08
                             3.2400                       5.031718E-08                       1.007480E+02                       3.039992E+02                       5.810910E-08
                             3.4200                       5.030811E-08                       1.007480E+02                       3.039992E+02                       5.809862E-08
                             3.6000                       5.029743E-08                       1.007480E+02                       3.039992E+02                       5.808629E-08
                             3.7800                       5.028532E-08                       1.007480E+02                       3.039992E+02                       5.807230E-08
                             3.9600                       5.027195E-08                       1.007480E+02                       3.039992E+02                       5.805686E-08
                             4.1400                       5.025752E-08                       1.007480E+02                       3.039992E+02                       5.804019E-08
                             4.3200                       5.024219E-08                       1.007480E+02                       3.039992E+02                       5.802249E-08
                             4.5000                       5.022615E-08                       1.007480E+02                       3.039992E+02                       5.800396E-08
                             4.6800                       5.020957E-08                       1.007480E+02                       3.039992E+02                       5.798482E-08
                             4.8600                       5.019265E-08                       1.007480E+02                       3.039992E+02                       5.796528E-08
                             5.0400                       5.017555E-08                       1.007480E+02                       3.039992E+02                       5.794553E-08
                             5.2200                       5.015845E-08                       1.007480E+02                       3.039992E+02                       5.792579E-08
                             5.4000                       5.014155E-08                       1.007480E+02                       3.039992E+02                       5.790627E-08
                             5.5800                       5.012501E-08                       1.007480E+02                       3.039992E+02                       5.788717E-08
                             5.7600                       5.010902E-08                       1.007480E+02                       3.039992E+02                       5.786870E-08
                             5.9400                       5.009376E-08                       1.007480E+02                       3.039992E+02                       5.785107E-08
                             6.1200                       5.007940E-08                       1.007480E+02                       3.039992E+02                       5.783449E-08
                             6.3000                       5.006612E-08                       1.007480E+02                       3.039992E+02                       5.781916E-08
                             6.4800                       5.005412E-08                       1.007480E+02                       3.039992E+02                       5.780529E-08
                             6.6600                       5.004355E-08                       1.007480E+02                       3.039992E+02                       5.779310E-08
                             6.8400                       5.003462E-08                       1.007480E+02                       3.039992E+02                       5.778277E-08
                             7.0200                       5.002748E-08                       1.007480E+02                       3.039992E+02                       5.777454E-08
                             7.2000                       5.002233E-08                       1.007480E+02                       3.039992E+02                       5.776859E-08
                             7.3800                       5.001935E-08                       1.007480E+02                       3.039992E+02                       5.776514E-08
                             7.5600                       5.001871E-08                       1.007480E+02                       3.039992E+02                       5.776440E-08
                             7.7400                       5.002059E-08                       1.007480E+02                       3.039992E+02                       5.776657E-08
                             7.9200                       5.002517E-08                       1.007480E+02                       3.039992E+02                       5.777187E-08
                             8.1000                       5.003263E-08                       1.007480E+02                       3.039992E+02                       5.778049E-08
                             8.2800                       5.004316E-08                       1.007480E+02                       3.039992E+02                       5.779264E-08
                             8.4600                       5.005692E-08                       1.007480E+02                       3.039992E+02                       5.780854E-08
                             8.6400                       5.007411E-08                       1.007480E+02                       3.039992E+02                       5.782838E-08
                             8.8200                       5.009489E-08                       1.007480E+02                       3.039992E+02                       5.785238E-08
                             9.0000                       5.011945E-08                       1.007480E+02                       3.039992E+02                       5.788074E-08
                             9.1800                       5.014796E-08                       1.007480E+02                       3.039992E+02                       5.791367E-08
                             9.3600                       5.018061E-08                       1.007480E+02                       3.039992E+02                       5.795138E-08
                             9.5400                       5.021757E-08                       1.007480E+02                       3.039992E+02                       5.799406E-08
                             9.7200                       5.025903E-08                       1.007480E+02                       3.039992E+02                       5.804194E-08
                             9.9000                       5.030516E-08                       1.007480E+02                       3.039992E+02                       5.809521E-08
                            10.0800                       5.035613E-08                       1.007480E+02                       3.039992E+02                       5.815408E-08
                            10.2600                       5.041214E-08                       1.007480E+02                       3.039992E+02                       5.821876E-08
                            10.4400                       5.047335E-08                       1.007480E+02                       3.039992E+02                       5.828945E-08
                            10.6200                       5.053994E-08                       1.007480E+02                       3.039992E+02                       5.836635E-08
                            10.8000                       5.061210E-08                       1.007480E+02                       3.039992E+02                       5.844969E-08
                            10.9800                       5.069000E-08                       1.007480E+02                       3.039992E+02                       5.853965E-08
                            11.1600                       5.077382E-08                       1.007480E+02                       3.039992E+02                       5.863645E-08
                            11.3400                       5.086374E-08                       1.007480E+02                       3.039992E+02                       5.874029E-08
                            11.5200                       5.095993E-08                       1.007480E+02                       3.039992E+02                       5.885138E-08
                            11.7000                       5.106258E-08                       1.007480E+02                       3.039992E+02                       5.896992E-08
                            11.8800                       5.117185E-08                       1.007480E+02                       3.039992E+02                       5.909612E-08
                            12.0600                       5.128793E-08                       1.007480E+02                       3.039992E+02                       5.923017E-08
                            12.2400                       5.141100E-08                       1.007480E+02                       3.039992E+02                       5.937230E-08
                            12.4200                       5.154123E-08                       1.007480E+02                       3.039992E+02                       5.952270E-08
                            12.6000                       5.167880E-08                       1.007480E+02                       3.039992E+02                       5.968157E-08
                            12.7800                       5.182389E-08                       1.007480E+02                       3.039992E+02                       5.984912E-08
                            12.9600                       5.197667E-08                       1.007480E+02                       3.039992E+02                       6.002556E-08
                            13.1400                       5.213732E-08                       1.007480E+02                       3.039992E+02                       6.021109E-08
                            13.3200                       5.230601E-08                       1.007480E+02                       3.039992E+02                       6.040591E-08
                            13.5000                       5.248293E-08                       1.007480E+02                       3.039992E+02                       6.061023E-08
                            13.6800                       5.266825E-08                       1.007480E+02                       3.039992E+02                       6.082424E-08
                            13.8600                       5.286215E-08                       1.007480E+02                       3.039992E+02                       6.104816E-08
                            14.0400                       5.306479E-08                       1.007480E+02                       3.039992E+02                       6.128219E-08
                            14.2200                       5.327637E-08                       1.007480E+02                       3.039992E+02                       6.152653E-08
                            14.4000                       5.349705E-08                       1.007480E+02                       3.039992E+02                       6.178138E-08
                            14.5800                       5.372700E-08                       1.007480E+02                       3.039992E+02                       6.204695E-08
                            14.7600                       5.396642E-08                       1.007480E+02                       3.039992E+02                       6.232344E-08
                            14.9400                       5.421546E-08                       1.007480E+02                       3.039992E+02                       6.261105E-08
                            15.1200                       5.447431E-08                       1.007480E+02                       3.039992E+02                       6.290998E-08
                            15.3000                       5.474313E-08                       1.007480E+02                       3.039992E+02                       6.322043E-08
                            15.4800                       5.502212E-08                       1.007480E+02                       3.039992E+02                       6.354262E-08
                            15.6600                       5.531143E-08                       1.007480E+02                       3.039992E+02                       6.387673E-08
                            15.8400                       5.561124E-08                       1.007480E+02                       3.039992E+02                       6.422298E-08
                            16.0200                       5.592174E-08                       1.007480E+02                       3.039992E+02                       6.458155E-08
                            16.2000                       5.624309E-08                       1.007480E+02                       3.039992E+02                       6.495266E-08
                            16.3800                       5.657546E-08                       1.007480E+02                       3.039992E+02                       6.533651E-08
                            16.5600                       5.691904E-08                       1.007480E+02                       3.039992E+02                       6.573329E-08
                            16.7400                       5.727398E-08                       1.007480E+02                       3.039992E+02                       6.614320E-08
                            16.9200                       5.764048E-08                       1.007480E+02                       3.039992E+02                       6.656645E-08
                            17.1000                       5.801870E-08                       1.007480E+02                       3.039992E+02                       6.700324E-08
                            17.2800                       5.840881E-08                       1.007480E+02                       3.039992E+02                       6.745376E-08
                            17.4600                       5.881099E-08                       1.007480E+02                       3.039992E+02                       6.791822E-08
                            17.6400                       5.922540E-08                       1.007480E+02                       3.039992E+02                       6.839681E-08
                            17.8200                       5.965223E-08                       1.007480E+02                       3.039992E+02                       6.888974E-08
                            18.0000                       6.009165E-08                       1.007480E+02                       3.039992E+02                       6.939720E-08
                            18.1800                       6.054382E-08                       1.007480E+02                       3.039992E+02                       6.991939E-08
                            18.3600                       6.100891E-08                       1.007480E+02                       3.039992E+02                       7.045651E-08
                            18.5400                       6.148711E-08                       1.007480E+02                       3.039992E+02                       7.100876E-08
                            18.7200                       6.197858E-08                       1.007480E+02                       3.039992E+02                       7.157633E-08
                            18.9000                       6.248349E-08                       1.007480E+02                       3.039992E+02                       7.215943E-08
                            19.0800                       6.300202E-08                       1.007480E+02                       3.039992E+02                       7.275826E-08
                            19.2600                       6.353433E-08                       1.007480E+02                       3.039992E+02                       7.337300E-08
                            19.4400                       6.408059E-08                       1.007480E+02                       3.039992E+02                       7.400386E-08
                            19.6200                       6.464098E-08                       1.007480E+02                       3.039992E+02                       7.465103E-08
                            19.8000                       6.521567E-08                       1.007480E+02                       3.039992E+02                       7.531471E-08
                            19.9800                       6.580482E-08                       1.007480E+02                       3.039992E+02                       7.599509E-08
