                             Degree                         Volume[m3]                    I.Pressure[kPa]                   I.Temperature[K]                         I.Mass[kg]
                             0.0000                       5.000000E-08                       1.008573E+02                       3.037850E+02                       5.784632E-08
                             0.1800                       5.005066E-08                       1.008573E+02                       3.037850E+02                       5.790493E-08
                             0.3600                       5.009648E-08                       1.008573E+02                       3.037850E+02                       5.795794E-08
                             0.5400                       5.013763E-08                       1.008573E+02                       3.037850E+02                       5.800555E-08
                             0.7200                       5.017429E-08                       1.008573E+02                       3.037850E+02                       5.804797E-08
                             0.9000                       5.020665E-08                       1.008573E+02                       3.037850E+02                       5.808541E-08
                             1.0800                       5.023489E-08                       1.008573E+02                       3.037850E+02                       5.811807E-08
                             1.2600                       5.025918E-08                       1.008573E+02                       3.037850E+02                       5.814617E-08
                             1.4400                       5.027970E-08                       1.008573E+02                       3.037850E+02                       5.816991E-08
                             1.6200                       5.029663E-08                       1.008573E+02                       3.037850E+02                       5.818950E-08
                             1.8000                       5.031015E-08                       1.008573E+02                       3.037850E+02                       5.820515E-08
                             1.9800                       5.032045E-08                       1.008573E+02                       3.037850E+02                       5.821706E-08
                             2.1600                       5.032769E-08                       1.008573E+02                       3.037850E+02                       5.822544E-08
                             2.3400                       5.033207E-08                       1.008573E+02                       3.037850E+02                       5.823050E-08
                             2.5200                       5.033375E-08                       1.008573E+02                       3.037850E+02                       5.823245E-08
                             2.7000                       5.033292E-08                       1.008573E+02                       3.037850E+02                       5.823149E-08
                             2.8800                       5.032977E-08                       1.008573E+02                       3.037850E+02                       5.822784E-08
                             3.0600                       5.032446E-08                       1.008573E+02                       3.037850E+02                       5.822170E-08
                             3.2400                       5.031718E-08                       1.008573E+02                       3.037850E+02                       5.821328E-08
                             3.4200                       5.030811E-08                       1.008573E+02                       3.037850E+02                       5.820279E-08
                             3.6000                       5.029743E-08                       1.008573E+02                       3.037850E+02                       5.819043E-08
                             3.7800                       5.028532E-08                       1.008573E+02                       3.037850E+02                       5.817642E-08
                             3.9600                       5.027195E-08                       1.008573E+02                       3.037850E+02                       5.816095E-08
                             4.1400                       5.025752E-08                       1.008573E+02                       3.037850E+02                       5.814425E-08
                             4.3200                       5.024219E-08                       1.008573E+02                       3.037850E+02                       5.812652E-08
                             4.5000                       5.022615E-08                       1.008573E+02                       3.037850E+02                       5.810796E-08
                             4.6800                       5.020957E-08                       1.008573E+02                       3.037850E+02                       5.808878E-08
                             4.8600                       5.019265E-08                       1.008573E+02                       3.037850E+02                       5.806920E-08
                             5.0400                       5.017555E-08                       1.008573E+02                       3.037850E+02                       5.804942E-08
                             5.2200                       5.015845E-08                       1.008573E+02                       3.037850E+02                       5.802965E-08
                             5.4000                       5.014155E-08                       1.008573E+02                       3.037850E+02                       5.801009E-08
                             5.5800                       5.012501E-08                       1.008573E+02                       3.037850E+02                       5.799095E-08
                             5.7600                       5.010902E-08                       1.008573E+02                       3.037850E+02                       5.797245E-08
                             5.9400                       5.009376E-08                       1.008573E+02                       3.037850E+02                       5.795479E-08
                             6.1200                       5.007940E-08                       1.008573E+02                       3.037850E+02                       5.793818E-08
                             6.3000                       5.006612E-08                       1.008573E+02                       3.037850E+02                       5.792282E-08
                             6.4800                       5.005412E-08                       1.008573E+02                       3.037850E+02                       5.790893E-08
                             6.6600                       5.004355E-08                       1.008573E+02                       3.037850E+02                       5.789671E-08
                             6.8400                       5.003462E-08                       1.008573E+02                       3.037850E+02                       5.788637E-08
                             7.0200                       5.002748E-08                       1.008573E+02                       3.037850E+02                       5.787812E-08
                             7.2000                       5.002233E-08                       1.008573E+02                       3.037850E+02                       5.787216E-08
                             7.3800                       5.001935E-08                       1.008573E+02                       3.037850E+02                       5.786871E-08
                             7.5600                       5.001871E-08                       1.008573E+02                       3.037850E+02                       5.786797E-08
                             7.7400                       5.002059E-08                       1.008573E+02                       3.037850E+02                       5.787014E-08
                             7.9200                       5.002517E-08                       1.008573E+02                       3.037850E+02                       5.787545E-08
                             8.1000                       5.003263E-08                       1.008573E+02                       3.037850E+02                       5.788408E-08
                             8.2800                       5.004316E-08                       1.008573E+02                       3.037850E+02                       5.789626E-08
                             8.4600                       5.005692E-08                       1.008573E+02                       3.037850E+02                       5.791218E-08
                             8.6400                       5.007411E-08                       1.008573E+02                       3.037850E+02                       5.793206E-08
                             8.8200                       5.009489E-08                       1.008573E+02                       3.037850E+02                       5.795610E-08
                             9.0000                       5.011945E-08                       1.008573E+02                       3.037850E+02                       5.798452E-08
                             9.1800                       5.014796E-08                       1.008573E+02                       3.037850E+02                       5.801750E-08
                             9.3600                       5.018061E-08                       1.008573E+02                       3.037850E+02                       5.805528E-08
                             9.5400                       5.021757E-08                       1.008573E+02                       3.037850E+02                       5.809804E-08
                             9.7200                       5.025903E-08                       1.008573E+02                       3.037850E+02                       5.814600E-08
                             9.9000                       5.030516E-08                       1.008573E+02                       3.037850E+02                       5.819937E-08
                            10.0800                       5.035613E-08                       1.008573E+02                       3.037850E+02                       5.825834E-08
                            10.2600                       5.041214E-08                       1.008573E+02                       3.037850E+02                       5.832314E-08
                            10.4400                       5.047335E-08                       1.008573E+02                       3.037850E+02                       5.839395E-08
                            10.6200                       5.053994E-08                       1.008573E+02                       3.037850E+02                       5.847100E-08
                            10.8000                       5.061210E-08                       1.008573E+02                       3.037850E+02                       5.855448E-08
                            10.9800                       5.069000E-08                       1.008573E+02                       3.037850E+02                       5.864461E-08
                            11.1600                       5.077382E-08                       1.008573E+02                       3.037850E+02                       5.874158E-08
                            11.3400                       5.086374E-08                       1.008573E+02                       3.037850E+02                       5.884561E-08
                            11.5200                       5.095993E-08                       1.008573E+02                       3.037850E+02                       5.895689E-08
                            11.7000                       5.106258E-08                       1.008573E+02                       3.037850E+02                       5.907565E-08
                            11.8800                       5.117185E-08                       1.008573E+02                       3.037850E+02                       5.920207E-08
                            12.0600                       5.128793E-08                       1.008573E+02                       3.037850E+02                       5.933637E-08
                            12.2400                       5.141100E-08                       1.008573E+02                       3.037850E+02                       5.947875E-08
                            12.4200                       5.154123E-08                       1.008573E+02                       3.037850E+02                       5.962942E-08
                            12.6000                       5.167880E-08                       1.008573E+02                       3.037850E+02                       5.978857E-08
                            12.7800                       5.182389E-08                       1.008573E+02                       3.037850E+02                       5.995643E-08
                            12.9600                       5.197667E-08                       1.008573E+02                       3.037850E+02                       6.013318E-08
                            13.1400                       5.213732E-08                       1.008573E+02                       3.037850E+02                       6.031904E-08
                            13.3200                       5.230601E-08                       1.008573E+02                       3.037850E+02                       6.051421E-08
                            13.5000                       5.248293E-08                       1.008573E+02                       3.037850E+02                       6.071889E-08
                            13.6800                       5.266825E-08                       1.008573E+02                       3.037850E+02                       6.093330E-08
                            13.8600                       5.286215E-08                       1.008573E+02                       3.037850E+02                       6.115762E-08
                            14.0400                       5.306479E-08                       1.008573E+02                       3.037850E+02                       6.139207E-08
                            14.2200                       5.327637E-08                       1.008573E+02                       3.037850E+02                       6.163684E-08
                            14.4000                       5.349705E-08                       1.008573E+02                       3.037850E+02                       6.189215E-08
                            14.5800                       5.372700E-08                       1.008573E+02                       3.037850E+02                       6.215819E-08
                            14.7600                       5.396642E-08                       1.008573E+02                       3.037850E+02                       6.243518E-08
                            14.9400                       5.421546E-08                       1.008573E+02                       3.037850E+02                       6.272330E-08
                            15.1200                       5.447431E-08                       1.008573E+02                       3.037850E+02                       6.302277E-08
                            15.3000                       5.474313E-08                       1.008573E+02                       3.037850E+02                       6.333378E-08
                            15.4800                       5.502212E-08                       1.008573E+02                       3.037850E+02                       6.365654E-08
                            15.6600                       5.531143E-08                       1.008573E+02                       3.037850E+02                       6.399126E-08
                            15.8400                       5.561124E-08                       1.008573E+02                       3.037850E+02                       6.433812E-08
                            16.0200                       5.592174E-08                       1.008573E+02                       3.037850E+02                       6.469734E-08
                            16.2000                       5.624309E-08                       1.008573E+02                       3.037850E+02                       6.506912E-08
                            16.3800                       5.657546E-08                       1.008573E+02                       3.037850E+02                       6.545365E-08
                            16.5600                       5.691904E-08                       1.008573E+02                       3.037850E+02                       6.585114E-08
                            16.7400                       5.727398E-08                       1.008573E+02                       3.037850E+02                       6.626179E-08
                            16.9200                       5.764048E-08                       1.008573E+02                       3.037850E+02                       6.668580E-08
                            17.1000                       5.801870E-08                       1.008573E+02                       3.037850E+02                       6.712337E-08
                            17.2800                       5.840881E-08                       1.008573E+02                       3.037850E+02                       6.757470E-08
                            17.4600                       5.881099E-08                       1.008573E+02                       3.037850E+02                       6.803999E-08
                            17.6400                       5.922540E-08                       1.008573E+02                       3.037850E+02                       6.851944E-08
                            17.8200                       5.965223E-08                       1.008573E+02                       3.037850E+02                       6.901325E-08
                            18.0000                       6.009165E-08                       1.008573E+02                       3.037850E+02                       6.952162E-08
                            18.1800                       6.054382E-08                       1.008573E+02                       3.037850E+02                       7.004475E-08
                            18.3600                       6.100891E-08                       1.008573E+02                       3.037850E+02                       7.058283E-08
                            18.5400                       6.148711E-08                       1.008573E+02                       3.037850E+02                       7.113607E-08
                            18.7200                       6.197858E-08                       1.008573E+02                       3.037850E+02                       7.170466E-08
                            18.9000                       6.248349E-08                       1.008573E+02                       3.037850E+02                       7.228881E-08
                            19.0800                       6.300202E-08                       1.008573E+02                       3.037850E+02                       7.288870E-08
                            19.2600                       6.353433E-08                       1.008573E+02                       3.037850E+02                       7.350455E-08
                            19.4400                       6.408059E-08                       1.008573E+02                       3.037850E+02                       7.413654E-08
                            19.6200                       6.464098E-08                       1.008573E+02                       3.037850E+02                       7.478487E-08
                            19.8000                       6.521567E-08                       1.008573E+02                       3.037850E+02                       7.544974E-08
                            19.9800                       6.580482E-08                       1.008573E+02                       3.037850E+02                       7.613134E-08
