                   Degree              F_vhoc_n[N]              F_vhoc_t[N]                 F_1_n[N]                 F_2_n[N]                  F_cx[N]                  F_cy[N]           F_resultant[N]
                   0.0000            -9.906535E-01            -4.887574E+01             3.865974E+00             5.365650E+00             1.499676E+00             2.005304E+01             2.010904E+01
                   0.1800            -2.838757E+00            -5.159449E+01             2.703614E+00             4.281046E+00             1.584659E+00             2.143324E+01             2.149174E+01
                   0.3600            -3.204591E+00            -5.159390E+01             2.385430E+00             4.247734E+00             1.876695E+00             2.149239E+01             2.157417E+01
                   0.5400            -3.565418E+00            -5.158876E+01             2.070411E+00             4.218978E+00             2.170048E+00             2.155037E+01             2.165935E+01
                   0.7200            -3.923556E+00            -5.158363E+01             1.757316E+00             4.192980E+00             2.464157E+00             2.160922E+01             2.174926E+01
                   0.9000            -4.279865E+00            -5.158030E+01             1.445707E+00             4.169026E+00             2.758737E+00             2.166968E+01             2.184458E+01
                   1.0800            -4.634703E+00            -5.157941E+01             1.135396E+00             4.146832E+00             3.053694E+00             2.173197E+01             2.194547E+01
                   1.2600            -4.988267E+00            -5.158124E+01             8.262491E-01             4.126288E+00             3.349044E+00             2.179611E+01             2.205190E+01
                   1.4400            -5.340569E+00            -5.158582E+01             5.182786E-01             4.107347E+00             3.644727E+00             2.186202E+01             2.216375E+01
                   1.6200            -5.691636E+00            -5.159317E+01             2.114668E-01             4.089988E+00             3.940737E+00             2.192959E+01             2.228085E+01
                   1.8000            -6.041457E+00            -5.160327E+01            -9.417424E-02             4.074200E+00             4.237050E+00             2.199870E+01             2.240303E+01
                   1.9800            -6.390064E+00            -5.161610E+01            -3.986745E-01             4.059978E+00             4.533689E+00             2.206923E+01             2.253010E+01
                   2.1600            -6.737428E+00            -5.163160E+01            -7.020063E-01             4.047318E+00             4.830622E+00             2.214104E+01             2.266187E+01
                   2.3400            -7.083561E+00            -5.164976E+01            -1.004182E+00             4.036215E+00             5.127858E+00             2.221400E+01             2.279817E+01
                   2.5200            -7.428450E+00            -5.167054E+01            -1.305191E+00             4.026666E+00             5.425382E+00             2.228798E+01             2.293880E+01
                   2.7000            -7.772091E+00            -5.169390E+01            -1.605029E+00             4.018667E+00             5.723190E+00             2.236284E+01             2.308358E+01
                   2.8800            -8.114486E+00            -5.171981E+01            -1.903700E+00             4.012216E+00             6.021284E+00             2.243847E+01             2.323232E+01
                   3.0600            -8.455623E+00            -5.174823E+01            -2.201192E+00             4.007307E+00             6.319650E+00             2.251472E+01             2.338484E+01
                   3.2400            -8.795505E+00            -5.177913E+01            -2.497510E+00             4.003934E+00             6.618291E+00             2.259147E+01             2.354095E+01
                   3.4200            -9.134134E+00            -5.181245E+01            -2.792656E+00             4.002090E+00             6.917204E+00             2.266858E+01             2.370047E+01
                   3.6000            -9.471509E+00            -5.184817E+01            -3.086632E+00             4.001760E+00             7.216382E+00             2.274593E+01             2.386322E+01
                   3.7800            -9.807640E+00            -5.188620E+01            -3.379444E+00             4.002924E+00             7.515816E+00             2.282337E+01             2.402902E+01
                   3.9600            -1.014256E+01            -5.192648E+01            -3.671123E+00             4.005540E+00             7.815498E+00             2.290080E+01             2.419770E+01
                   4.1400            -1.047631E+01            -5.196884E+01            -3.961720E+00             4.009518E+00             8.115396E+00             2.297809E+01             2.436909E+01
                   4.3200            -1.080912E+01            -5.201290E+01            -4.251421E+00             4.014593E+00             8.415429E+00             2.305518E+01             2.454304E+01
                   4.5000            -1.114148E+01            -5.205774E+01            -4.540693E+00             4.020084E+00             8.715375E+00             2.313209E+01             2.471945E+01
                   4.6800            -1.147375E+01            -5.210272E+01            -4.829854E+00             4.025538E+00             9.015085E+00             2.320889E+01             2.489828E+01
                   4.8600            -1.180595E+01            -5.214775E+01            -5.118923E+00             4.030918E+00             9.314541E+00             2.328556E+01             2.507943E+01
                   5.0400            -1.213805E+01            -5.219282E+01            -5.407893E+00             4.036228E+00             9.613739E+00             2.336208E+01             2.526284E+01
                   5.2200            -1.247004E+01            -5.223790E+01            -5.696752E+00             4.041474E+00             9.912674E+00             2.343845E+01             2.544842E+01
                   5.4000            -1.280190E+01            -5.228298E+01            -5.985491E+00             4.046665E+00             1.021135E+01             2.351463E+01             2.563610E+01
                   5.5800            -1.313362E+01            -5.232803E+01            -6.274099E+00             4.051805E+00             1.050975E+01             2.359061E+01             2.582579E+01
                   5.7600            -1.346517E+01            -5.237302E+01            -6.562569E+00             4.056903E+00             1.080788E+01             2.366636E+01             2.601744E+01
                   5.9400            -1.379654E+01            -5.241794E+01            -6.850886E+00             4.061964E+00             1.110573E+01             2.374187E+01             2.621094E+01
                   6.1200            -1.412771E+01            -5.246277E+01            -7.139045E+00             4.066995E+00             1.140331E+01             2.381710E+01             2.640624E+01
                   6.3000            -1.445866E+01            -5.250748E+01            -7.427034E+00             4.072004E+00             1.170060E+01             2.389203E+01             2.660325E+01
                   6.4800            -1.478938E+01            -5.255205E+01            -7.714841E+00             4.076998E+00             1.199762E+01             2.396663E+01             2.680190E+01
                   6.6600            -1.511984E+01            -5.259646E+01            -8.002458E+00             4.081982E+00             1.229434E+01             2.404087E+01             2.700212E+01
                   6.8400            -1.545003E+01            -5.264069E+01            -8.289874E+00             4.086965E+00             1.259078E+01             2.411473E+01             2.720382E+01
                   7.0200            -1.577993E+01            -5.268471E+01            -8.577080E+00             4.091954E+00             1.288693E+01             2.418817E+01             2.740694E+01
                   7.2000            -1.610951E+01            -5.272850E+01            -8.864064E+00             4.096955E+00             1.318278E+01             2.426115E+01             2.761140E+01
                   7.3800            -1.643877E+01            -5.277204E+01            -9.150817E+00             4.101975E+00             1.347834E+01             2.433366E+01             2.781713E+01
                   7.5600            -1.676769E+01            -5.281531E+01            -9.437329E+00             4.107022E+00             1.377361E+01             2.440564E+01             2.802405E+01
                   7.7400            -1.709624E+01            -5.285828E+01            -9.723588E+00             4.112104E+00             1.406858E+01             2.447707E+01             2.823211E+01
                   7.9200            -1.742440E+01            -5.290094E+01            -1.000959E+01             4.117226E+00             1.436325E+01             2.454791E+01             2.844121E+01
                   8.1000            -1.775216E+01            -5.294327E+01            -1.029531E+01             4.122396E+00             1.465762E+01             2.461811E+01             2.865131E+01
                   8.2800            -1.807951E+01            -5.298523E+01            -1.058076E+01             4.127621E+00             1.495169E+01             2.468765E+01             2.886231E+01
                   8.4600            -1.840641E+01            -5.302681E+01            -1.086591E+01             4.132908E+00             1.524546E+01             2.475648E+01             2.907417E+01
                   8.6400            -1.873285E+01            -5.306799E+01            -1.115076E+01             4.138264E+00             1.553893E+01             2.482457E+01             2.928681E+01
                   8.8200            -1.905883E+01            -5.310875E+01            -1.143529E+01             4.143696E+00             1.583210E+01             2.489186E+01             2.950017E+01
                   9.0000            -1.938430E+01            -5.314907E+01            -1.171951E+01             4.149210E+00             1.612496E+01             2.495833E+01             2.971418E+01
                   9.1800            -1.970927E+01            -5.318893E+01            -1.200339E+01             4.154813E+00             1.641753E+01             2.502392E+01             2.992878E+01
                   9.3600            -2.003371E+01            -5.322831E+01            -1.228693E+01             4.160511E+00             1.670979E+01             2.508860E+01             3.014391E+01
                   9.5400            -2.035760E+01            -5.326719E+01            -1.257012E+01             4.166310E+00             1.700176E+01             2.515232E+01             3.035950E+01
                   9.7200            -2.068093E+01            -5.330555E+01            -1.285295E+01             4.172217E+00             1.729342E+01             2.521505E+01             3.057550E+01
                   9.9000            -2.100368E+01            -5.334338E+01            -1.313542E+01             4.178238E+00             1.758479E+01             2.527673E+01             3.079185E+01
                  10.0800            -2.132584E+01            -5.338066E+01            -1.341750E+01             4.184377E+00             1.787586E+01             2.533732E+01             3.100849E+01
                  10.2600            -2.164738E+01            -5.341738E+01            -1.369919E+01             4.190640E+00             1.816663E+01             2.539679E+01             3.122536E+01
                  10.4400            -2.196830E+01            -5.345351E+01            -1.398049E+01             4.197033E+00             1.845711E+01             2.545508E+01             3.144243E+01
                  10.6200            -2.228858E+01            -5.348905E+01            -1.426139E+01             4.203560E+00             1.874730E+01             2.551216E+01             3.165962E+01
                  10.8000            -2.260820E+01            -5.352398E+01            -1.454187E+01             4.210225E+00             1.903719E+01             2.556799E+01             3.187690E+01
                  10.9800            -2.292714E+01            -5.355829E+01            -1.482194E+01             4.217032E+00             1.932680E+01             2.562252E+01             3.209421E+01
                  11.1600            -2.324541E+01            -5.359197E+01            -1.510157E+01             4.223986E+00             1.961611E+01             2.567572E+01             3.231152E+01
                  11.3400            -2.356297E+01            -5.362501E+01            -1.538077E+01             4.231089E+00             1.990514E+01             2.572754E+01             3.252877E+01
                  11.5200            -2.387983E+01            -5.365740E+01            -1.565953E+01             4.238345E+00             2.019389E+01             2.577795E+01             3.274593E+01
                  11.7000            -2.419596E+01            -5.368913E+01            -1.593784E+01             4.245755E+00             2.048235E+01             2.582691E+01             3.296295E+01
                  11.8800            -2.451136E+01            -5.372019E+01            -1.621569E+01             4.253323E+00             2.077053E+01             2.587439E+01             3.317980E+01
                  12.0600            -2.482602E+01            -5.375059E+01            -1.649308E+01             4.261049E+00             2.105844E+01             2.592035E+01             3.339644E+01
                  12.2400            -2.513993E+01            -5.378032E+01            -1.677001E+01             4.268935E+00             2.134606E+01             2.596476E+01             3.361284E+01
                  12.4200            -2.545307E+01            -5.380936E+01            -1.704646E+01             4.276982E+00             2.163341E+01             2.600759E+01             3.382897E+01
                  12.6000            -2.576545E+01            -5.383774E+01            -1.732243E+01             4.285188E+00             2.192049E+01             2.604881E+01             3.404480E+01
                  12.7800            -2.607704E+01            -5.386543E+01            -1.759792E+01             4.293555E+00             2.220730E+01             2.608840E+01             3.426031E+01
                  12.9600            -2.638786E+01            -5.389245E+01            -1.787293E+01             4.302082E+00             2.249383E+01             2.612633E+01             3.447546E+01
                  13.1400            -2.669788E+01            -5.391879E+01            -1.814744E+01             4.310766E+00             2.278010E+01             2.616257E+01             3.469025E+01
                  13.3200            -2.700710E+01            -5.394446E+01            -1.842146E+01             4.319606E+00             2.306610E+01             2.619712E+01             3.490464E+01
                  13.5000            -2.731553E+01            -5.396947E+01            -1.869498E+01             4.328600E+00             2.335183E+01             2.622994E+01             3.511863E+01
                  13.6800            -2.762315E+01            -5.399383E+01            -1.896800E+01             4.337745E+00             2.363730E+01             2.626103E+01             3.533219E+01
                  13.8600            -2.792997E+01            -5.401753E+01            -1.924052E+01             4.347036E+00             2.392251E+01             2.629038E+01             3.554533E+01
                  14.0400            -2.823598E+01            -5.404060E+01            -1.951254E+01             4.356471E+00             2.420744E+01             2.631797E+01             3.575802E+01
                  14.2200            -2.854118E+01            -5.406303E+01            -1.978404E+01             4.366043E+00             2.449212E+01             2.634380E+01             3.597026E+01
                  14.4000            -2.884557E+01            -5.408485E+01            -2.005505E+01             4.375749E+00             2.477653E+01             2.636787E+01             3.618205E+01
                  14.5800            -2.914915E+01            -5.410607E+01            -2.032554E+01             4.385583E+00             2.506067E+01             2.639016E+01             3.639338E+01
                  14.7600            -2.945192E+01            -5.412669E+01            -2.059553E+01             4.395539E+00             2.534455E+01             2.641070E+01             3.660425E+01
                  14.9400            -2.975389E+01            -5.414675E+01            -2.086500E+01             4.405609E+00             2.562816E+01             2.642947E+01             3.681466E+01
                  15.1200            -3.005505E+01            -5.416624E+01            -2.113397E+01             4.415788E+00             2.591151E+01             2.644648E+01             3.702462E+01
                  15.3000            -3.035541E+01            -5.418520E+01            -2.140243E+01             4.426067E+00             2.619458E+01             2.646175E+01             3.723413E+01
                  15.4800            -3.065498E+01            -5.420364E+01            -2.167039E+01             4.436438E+00             2.647738E+01             2.647529E+01             3.744320E+01
                  15.6600            -3.095375E+01            -5.422158E+01            -2.193783E+01             4.446894E+00             2.675991E+01             2.648712E+01             3.765183E+01
                  15.8400            -3.125174E+01            -5.423904E+01            -2.220478E+01             4.457426E+00             2.704216E+01             2.649724E+01             3.786004E+01
                  16.0200            -3.154895E+01            -5.425604E+01            -2.247122E+01             4.468023E+00             2.732413E+01             2.650569E+01             3.806783E+01
                  16.2000            -3.184538E+01            -5.427260E+01            -2.273716E+01             4.478678E+00             2.760582E+01             2.651248E+01             3.827523E+01
                  16.3800            -3.214104E+01            -5.428876E+01            -2.300261E+01             4.489380E+00             2.788722E+01             2.651765E+01             3.848224E+01
                  16.5600            -3.243595E+01            -5.430452E+01            -2.326756E+01             4.500120E+00             2.816833E+01             2.652122E+01             3.868888E+01
                  16.7400            -3.273010E+01            -5.431992E+01            -2.353201E+01             4.510886E+00             2.844914E+01             2.652321E+01             3.889517E+01
                  16.9200            -3.302350E+01            -5.433498E+01            -2.379598E+01             4.521669E+00             2.872965E+01             2.652367E+01             3.910112E+01
                  17.1000            -3.331617E+01            -5.434973E+01            -2.405946E+01             4.532457E+00             2.900985E+01             2.652263E+01             3.930676E+01
                  17.2800            -3.360811E+01            -5.436418E+01            -2.432245E+01             4.543240E+00             2.928974E+01             2.652012E+01             3.951209E+01
                  17.4600            -3.389934E+01            -5.437837E+01            -2.458497E+01             4.554007E+00             2.956931E+01             2.651619E+01             3.971715E+01
