                   Degree           dqdtheta_sc[W]           dqdtheta_dc[W]           dqdtheta_hc[W]       dqdtheta_resoil[W]          dqdtheta_oil[W]
                   0.0000             8.012333E-04             1.367401E+01             0.000000E+00             1.727610E+00             3.007628E+03
                   0.1800             2.416004E-02             1.370549E+01             0.000000E+00             1.588931E+00             3.007861E+03
                   0.3600             4.093395E-02             1.373898E+01             0.000000E+00             1.548537E+00             3.007928E+03
                   0.5400             5.594042E-02             1.377122E+01             0.000000E+00             1.527476E+00             3.007962E+03
                   0.7200             7.016412E-02             1.380190E+01             0.000000E+00             1.517190E+00             3.007976E+03
                   0.9000             8.392696E-02             1.383082E+01             0.000000E+00             1.512564E+00             3.007980E+03
                   1.0800             9.734703E-02             1.385790E+01             0.000000E+00             1.510797E+00             3.007980E+03
                   1.2600             1.104761E-01             1.388308E+01             0.000000E+00             1.510425E+00             3.007977E+03
                   1.4400             1.233447E-01             1.390633E+01             0.000000E+00             1.510700E+00             3.007973E+03
                   1.6200             1.359760E-01             1.392768E+01             0.000000E+00             1.511247E+00             3.007969E+03
                   1.8000             1.483906E-01             1.394711E+01             0.000000E+00             1.511879E+00             3.007965E+03
                   1.9800             1.606070E-01             1.396466E+01             0.000000E+00             1.512505E+00             3.007961E+03
                   2.1600             1.726419E-01             1.398032E+01             0.000000E+00             1.513080E+00             3.007957E+03
                   2.3400             1.845102E-01             1.399412E+01             0.000000E+00             1.513586E+00             3.007954E+03
                   2.5200             1.962252E-01             1.400607E+01             0.000000E+00             1.514015E+00             3.007951E+03
                   2.7000             2.077986E-01             1.401618E+01             0.000000E+00             1.514365E+00             3.007948E+03
                   2.8800             2.192407E-01             1.402448E+01             0.000000E+00             1.514637E+00             3.007946E+03
                   3.0600             2.305607E-01             1.403098E+01             0.000000E+00             1.514833E+00             3.007944E+03
                   3.2400             2.417666E-01             1.403570E+01             0.000000E+00             1.514957E+00             3.007943E+03
                   3.4200             2.528658E-01             1.403865E+01             0.000000E+00             1.515010E+00             3.007942E+03
                   3.6000             2.638647E-01             1.403986E+01             0.000000E+00             1.514996E+00             3.007941E+03
                   3.7800             2.747694E-01             1.403936E+01             0.000000E+00             1.514919E+00             3.007940E+03
                   3.9600             2.855851E-01             1.403717E+01             0.000000E+00             1.514781E+00             3.007940E+03
                   4.1400             2.963170E-01             1.403335E+01             0.000000E+00             1.514585E+00             3.007940E+03
                   4.3200             3.069696E-01             1.402797E+01             0.000000E+00             1.514335E+00             3.007940E+03
                   4.5000             3.175472E-01             1.402118E+01             0.000000E+00             1.514037E+00             3.007941E+03
                   4.6800             3.280539E-01             1.401333E+01             0.000000E+00             1.513702E+00             3.007941E+03
                   4.8600             3.384936E-01             1.400505E+01             0.000000E+00             1.513348E+00             3.007942E+03
                   5.0400             3.488698E-01             1.399677E+01             0.000000E+00             1.512988E+00             3.007943E+03
                   5.2200             3.591861E-01             1.398856E+01             0.000000E+00             1.512627E+00             3.007944E+03
                   5.4000             3.694458E-01             1.398041E+01             0.000000E+00             1.512265E+00             3.007945E+03
                   5.5800             3.796523E-01             1.397233E+01             0.000000E+00             1.511906E+00             3.007946E+03
                   5.7600             3.898086E-01             1.396432E+01             0.000000E+00             1.511551E+00             3.007946E+03
                   5.9400             3.999178E-01             1.395637E+01             0.000000E+00             1.511202E+00             3.007947E+03
                   6.1200             4.099830E-01             1.394850E+01             0.000000E+00             1.510861E+00             3.007948E+03
                   6.3000             4.200071E-01             1.394069E+01             0.000000E+00             1.510531E+00             3.007949E+03
                   6.4800             4.299931E-01             1.393295E+01             0.000000E+00             1.510212E+00             3.007950E+03
                   6.6600             4.399439E-01             1.392528E+01             0.000000E+00             1.509909E+00             3.007950E+03
                   6.8400             4.498624E-01             1.391767E+01             0.000000E+00             1.509622E+00             3.007951E+03
                   7.0200             4.597515E-01             1.391013E+01             0.000000E+00             1.509353E+00             3.007952E+03
                   7.2000             4.696140E-01             1.390266E+01             0.000000E+00             1.509105E+00             3.007952E+03
                   7.3800             4.794529E-01             1.389525E+01             0.000000E+00             1.508880E+00             3.007953E+03
                   7.5600             4.892709E-01             1.388791E+01             0.000000E+00             1.508680E+00             3.007954E+03
                   7.7400             4.990709E-01             1.388064E+01             0.000000E+00             1.508507E+00             3.007954E+03
                   7.9200             5.088559E-01             1.387343E+01             0.000000E+00             1.508363E+00             3.007954E+03
                   8.1000             5.186286E-01             1.386629E+01             0.000000E+00             1.508250E+00             3.007955E+03
                   8.2800             5.283920E-01             1.385921E+01             0.000000E+00             1.508170E+00             3.007955E+03
                   8.4600             5.381490E-01             1.385220E+01             0.000000E+00             1.508125E+00             3.007955E+03
                   8.6400             5.479024E-01             1.384526E+01             0.000000E+00             1.508117E+00             3.007956E+03
                   8.8200             5.576552E-01             1.383838E+01             0.000000E+00             1.508148E+00             3.007956E+03
                   9.0000             5.674102E-01             1.383156E+01             0.000000E+00             1.508220E+00             3.007956E+03
                   9.1800             5.771704E-01             1.382481E+01             0.000000E+00             1.508334E+00             3.007956E+03
                   9.3600             5.869386E-01             1.381812E+01             0.000000E+00             1.508493E+00             3.007956E+03
                   9.5400             5.967177E-01             1.381150E+01             0.000000E+00             1.508698E+00             3.007956E+03
                   9.7200             6.065107E-01             1.380494E+01             0.000000E+00             1.508950E+00             3.007955E+03
                   9.9000             6.163204E-01             1.379845E+01             0.000000E+00             1.509251E+00             3.007955E+03
                  10.0800             6.261496E-01             1.379201E+01             0.000000E+00             1.509603E+00             3.007954E+03
                  10.2600             6.360012E-01             1.378564E+01             0.000000E+00             1.510006E+00             3.007954E+03
                  10.4400             6.458780E-01             1.377934E+01             0.000000E+00             1.510463E+00             3.007953E+03
                  10.6200             6.557827E-01             1.377309E+01             0.000000E+00             1.510974E+00             3.007953E+03
                  10.8000             6.657180E-01             1.376691E+01             0.000000E+00             1.511540E+00             3.007952E+03
                  10.9800             6.756867E-01             1.376079E+01             0.000000E+00             1.512162E+00             3.007951E+03
                  11.1600             6.856913E-01             1.375473E+01             0.000000E+00             1.512841E+00             3.007950E+03
                  11.3400             6.957345E-01             1.374873E+01             0.000000E+00             1.513578E+00             3.007949E+03
                  11.5200             7.058186E-01             1.374279E+01             0.000000E+00             1.514373E+00             3.007947E+03
                  11.7000             7.159462E-01             1.373691E+01             0.000000E+00             1.515226E+00             3.007946E+03
                  11.8800             7.261196E-01             1.373110E+01             0.000000E+00             1.516138E+00             3.007944E+03
                  12.0600             7.363410E-01             1.372534E+01             0.000000E+00             1.517109E+00             3.007943E+03
                  12.2400             7.466126E-01             1.371964E+01             0.000000E+00             1.518138E+00             3.007941E+03
                  12.4200             7.569364E-01             1.371400E+01             0.000000E+00             1.519226E+00             3.007939E+03
                  12.6000             7.673145E-01             1.370842E+01             0.000000E+00             1.520372E+00             3.007938E+03
                  12.7800             7.777486E-01             1.370289E+01             0.000000E+00             1.521576E+00             3.007936E+03
                  12.9600             7.882405E-01             1.369742E+01             0.000000E+00             1.522837E+00             3.007933E+03
                  13.1400             7.987918E-01             1.369201E+01             0.000000E+00             1.524155E+00             3.007931E+03
                  13.3200             8.094039E-01             1.368666E+01             0.000000E+00             1.525528E+00             3.007929E+03
                  13.5000             8.200782E-01             1.368136E+01             0.000000E+00             1.526955E+00             3.007927E+03
                  13.6800             8.308160E-01             1.367612E+01             0.000000E+00             1.528435E+00             3.007924E+03
                  13.8600             8.416181E-01             1.367094E+01             0.000000E+00             1.529967E+00             3.007921E+03
                  14.0400             8.524857E-01             1.366580E+01             0.000000E+00             1.531550E+00             3.007919E+03
                  14.2200             8.634193E-01             1.366073E+01             0.000000E+00             1.533181E+00             3.007916E+03
                  14.4000             8.744197E-01             1.365570E+01             0.000000E+00             1.534860E+00             3.007913E+03
                  14.5800             8.854873E-01             1.365073E+01             0.000000E+00             1.536583E+00             3.007910E+03
                  14.7600             8.966223E-01             1.364581E+01             0.000000E+00             1.538351E+00             3.007907E+03
                  14.9400             9.078250E-01             1.364095E+01             0.000000E+00             1.540160E+00             3.007904E+03
                  15.1200             9.190953E-01             1.363613E+01             0.000000E+00             1.542008E+00             3.007901E+03
                  15.3000             9.304330E-01             1.363137E+01             0.000000E+00             1.543893E+00             3.007898E+03
                  15.4800             9.418379E-01             1.362666E+01             0.000000E+00             1.545814E+00             3.007895E+03
                  15.6600             9.533094E-01             1.362199E+01             0.000000E+00             1.547767E+00             3.007891E+03
                  15.8400             9.648470E-01             1.361738E+01             0.000000E+00             1.549751E+00             3.007888E+03
                  16.0200             9.764498E-01             1.361282E+01             0.000000E+00             1.551762E+00             3.007885E+03
                  16.2000             9.881171E-01             1.360830E+01             0.000000E+00             1.553799E+00             3.007881E+03
                  16.3800             9.998476E-01             1.360383E+01             0.000000E+00             1.555859E+00             3.007878E+03
                  16.5600             1.011640E+00             1.359941E+01             0.000000E+00             1.557940E+00             3.007874E+03
                  16.7400             1.023494E+00             1.359503E+01             0.000000E+00             1.560039E+00             3.007870E+03
                  16.9200             1.035407E+00             1.359070E+01             0.000000E+00             1.562154E+00             3.007867E+03
                  17.1000             1.047377E+00             1.358642E+01             0.000000E+00             1.564282E+00             3.007863E+03
                  17.2800             1.059404E+00             1.358218E+01             0.000000E+00             1.566421E+00             3.007860E+03
                  17.4600             1.071486E+00             1.357799E+01             0.000000E+00             1.568568E+00             3.007856E+03
                  17.6400             1.083620E+00             1.357384E+01             0.000000E+00             1.570720E+00             3.007852E+03
                  17.8200             1.095804E+00             1.356973E+01             0.000000E+00             1.572876E+00             3.007849E+03
                  18.0000             1.108037E+00             1.356566E+01             0.000000E+00             1.575034E+00             3.007845E+03
                  18.1800             1.120317E+00             1.356164E+01             0.000000E+00             1.577190E+00             3.007841E+03
                  18.3600             1.132640E+00             1.355766E+01             0.000000E+00             1.579343E+00             3.007838E+03
                  18.5400             1.145006E+00             1.355372E+01             0.000000E+00             1.581490E+00             3.007834E+03
                  18.7200             1.157412E+00             1.354982E+01             0.000000E+00             1.583629E+00             3.007831E+03
                  18.9000             1.169854E+00             1.354596E+01             0.000000E+00             1.585758E+00             3.007827E+03
                  19.0800             1.182332E+00             1.354213E+01             0.000000E+00             1.587876E+00             3.007823E+03
                  19.2600             1.194843E+00             1.353835E+01             0.000000E+00             1.589979E+00             3.007820E+03
                  19.4400             1.207383E+00             1.353461E+01             0.000000E+00             1.592067E+00             3.007816E+03
                  19.6200             1.219951E+00             1.353090E+01             0.000000E+00             1.594138E+00             3.007813E+03
                  19.8000             1.232545E+00             1.352723E+01             0.000000E+00             1.596190E+00             3.007809E+03
                  19.9800             1.245161E+00             1.352360E+01             0.000000E+00             1.598220E+00             3.007806E+03
                  20.1600             1.257798E+00             1.352000E+01             0.000000E+00             1.600229E+00             3.007803E+03
                  20.3400             1.270452E+00             1.351644E+01             0.000000E+00             1.602213E+00             3.007799E+03
                  20.5200             1.283122E+00             1.351292E+01             0.000000E+00             1.604172E+00             3.007796E+03
                  20.7000             1.295805E+00             1.350943E+01             0.000000E+00             1.606105E+00             3.007793E+03
                  20.8800             1.308499E+00             1.350597E+01             0.000000E+00             1.608010E+00             3.007790E+03
                  21.0600             1.321201E+00             1.350255E+01             0.000000E+00             1.609887E+00             3.007787E+03
                  21.2400             1.333909E+00             1.349916E+01             0.000000E+00             1.611733E+00             3.007783E+03
                  21.4200             1.346620E+00             1.349580E+01             0.000000E+00             1.613548E+00             3.007780E+03
                  21.6000             1.359334E+00             1.349247E+01             0.000000E+00             1.615332E+00             3.007778E+03
                  21.7800             1.372046E+00             1.348918E+01             0.000000E+00             1.617083E+00             3.007775E+03
                  21.9600             1.384756E+00             1.348592E+01             0.000000E+00             1.618801E+00             3.007772E+03
                  22.1400             1.397460E+00             1.348269E+01             0.000000E+00             1.620484E+00             3.007769E+03
                  22.3200             1.410158E+00             1.347949E+01             0.000000E+00             1.622133E+00             3.007766E+03
                  22.5000             1.422847E+00             1.347631E+01             0.000000E+00             1.623746E+00             3.007764E+03
                  22.6800             1.435525E+00             1.347317E+01             0.000000E+00             1.625324E+00             3.007761E+03
                  22.8600             1.448191E+00             1.347006E+01             0.000000E+00             1.626866E+00             3.007759E+03
                  23.0400             1.460842E+00             1.346697E+01             0.000000E+00             1.628371E+00             3.007756E+03
                  23.2200             1.473477E+00             1.346392E+01             0.000000E+00             1.629839E+00             3.007754E+03
                  23.4000             1.486094E+00             1.346089E+01             0.000000E+00             1.631270E+00             3.007751E+03
