                   Degree              F_vhoc_n[N]              F_vhoc_t[N]                 F_1_n[N]                 F_2_n[N]                  F_cx[N]                  F_cy[N]           F_resultant[N]
                   0.0000            -9.954236E-01            -4.851591E+01             3.861923E+00             5.186190E+00             1.324267E+00             1.991534E+01             1.995932E+01
                   0.1800            -1.342692E+00            -4.742174E+01             3.290790E+00             5.649687E+00             2.365536E+00             1.943331E+01             1.957675E+01
                   0.3600            -2.055747E+00            -4.748784E+01             2.628057E+00             5.644933E+00             3.030275E+00             1.949490E+01             1.972900E+01
                   0.5400            -2.768683E+00            -4.755591E+01             1.965641E+00             5.640743E+00             3.695378E+00             1.955780E+01             1.990385E+01
                   0.7200            -3.481290E+00            -4.762560E+01             1.303671E+00             5.637237E+00             4.360834E+00             1.962180E+01             2.010054E+01
                   0.9000            -4.193309E+00            -4.769668E+01             6.423484E-01             5.634491E+00             5.026512E+00             1.968669E+01             2.031826E+01
                   1.0800            -4.904655E+00            -4.776898E+01            -1.827684E-02             5.632551E+00             5.692406E+00             1.975236E+01             2.055624E+01
                   1.2600            -5.615405E+00            -4.784242E+01            -6.783023E-01             5.631449E+00             6.358642E+00             1.981869E+01             2.081377E+01
                   1.4400            -6.325432E+00            -4.791695E+01            -1.337620E+00             5.631199E+00             7.025124E+00             1.988559E+01             2.109002E+01
                   1.6200            -7.034727E+00            -4.799251E+01            -1.996231E+00             5.631807E+00             7.691858E+00             1.995295E+01             2.138422E+01
                   1.8000            -7.743238E+00            -4.806907E+01            -2.654091E+00             5.633275E+00             8.358799E+00             2.002071E+01             2.169558E+01
                   1.9800            -8.451021E+00            -4.814664E+01            -3.311259E+00             5.635603E+00             9.026003E+00             2.008878E+01             2.202335E+01
                   2.1600            -9.158005E+00            -4.822518E+01            -3.967669E+00             5.638783E+00             9.693398E+00             2.015709E+01             2.236672E+01
                   2.3400            -9.864215E+00            -4.830472E+01            -4.623348E+00             5.642811E+00             1.036101E+01             2.022558E+01             2.272498E+01
                   2.5200            -1.056962E+01            -4.838523E+01            -5.278271E+00             5.647680E+00             1.102879E+01             2.029418E+01             2.309736E+01
                   2.7000            -1.127422E+01            -4.846672E+01            -5.932429E+00             5.653380E+00             1.169674E+01             2.036282E+01             2.348314E+01
                   2.8800            -1.197802E+01            -4.854921E+01            -6.585831E+00             5.659904E+00             1.236485E+01             2.043144E+01             2.388165E+01
                   3.0600            -1.268099E+01            -4.863267E+01            -7.238450E+00             5.667242E+00             1.303309E+01             2.049998E+01             2.429219E+01
                   3.2400            -1.338313E+01            -4.871713E+01            -7.890294E+00             5.675388E+00             1.370146E+01             2.056837E+01             2.471412E+01
                   3.4200            -1.408445E+01            -4.880259E+01            -8.541360E+00             5.684331E+00             1.436994E+01             2.063656E+01             2.514683E+01
                   3.6000            -1.478494E+01            -4.888905E+01            -9.191637E+00             5.694062E+00             1.503853E+01             2.070449E+01             2.558971E+01
                   3.7800            -1.548457E+01            -4.897651E+01            -9.841115E+00             5.704573E+00             1.570720E+01             2.077210E+01             2.604220E+01
                   3.9600            -1.618337E+01            -4.906498E+01            -1.048980E+01             5.715853E+00             1.637595E+01             2.083933E+01             2.650376E+01
                   4.1400            -1.688132E+01            -4.915447E+01            -1.113768E+01             5.727892E+00             1.704476E+01             2.090613E+01             2.697388E+01
                   4.3200            -1.757841E+01            -4.924496E+01            -1.178475E+01             5.740678E+00             1.771363E+01             2.097243E+01             2.745206E+01
                   4.5000            -1.827465E+01            -4.933647E+01            -1.243101E+01             5.754196E+00             1.838252E+01             2.103820E+01             2.793784E+01
                   4.6800            -1.897003E+01            -4.942897E+01            -1.307647E+01             5.768424E+00             1.905145E+01             2.110337E+01             2.843079E+01
                   4.8600            -1.966460E+01            -4.952242E+01            -1.372114E+01             5.783314E+00             1.972037E+01             2.116791E+01             2.893049E+01
                   5.0400            -2.035851E+01            -4.961651E+01            -1.436519E+01             5.798620E+00             2.038920E+01             2.123184E+01             2.943655E+01
                   5.2200            -2.105212E+01            -4.971066E+01            -1.500892E+01             5.813895E+00             2.105778E+01             2.129525E+01             2.994859E+01
                   5.4000            -2.174545E+01            -4.980482E+01            -1.565237E+01             5.829073E+00             2.172609E+01             2.135817E+01             3.046628E+01
                   5.5800            -2.243848E+01            -4.989897E+01            -1.629552E+01             5.844147E+00             2.239410E+01             2.142061E+01             3.098932E+01
                   5.7600            -2.313123E+01            -4.999315E+01            -1.693838E+01             5.859110E+00             2.306180E+01             2.148258E+01             3.151742E+01
                   5.9400            -2.382368E+01            -5.008734E+01            -1.758092E+01             5.873954E+00             2.372918E+01             2.154409E+01             3.205030E+01
                   6.1200            -2.451581E+01            -5.018156E+01            -1.822316E+01             5.888671E+00             2.439622E+01             2.160515E+01             3.258770E+01
                   6.3000            -2.520762E+01            -5.027583E+01            -1.886507E+01             5.903254E+00             2.506291E+01             2.166577E+01             3.312936E+01
                   6.4800            -2.589911E+01            -5.037014E+01            -1.950666E+01             5.917697E+00             2.572922E+01             2.172596E+01             3.367507E+01
                   6.6600            -2.659026E+01            -5.046450E+01            -2.014792E+01             5.931991E+00             2.639516E+01             2.178573E+01             3.422459E+01
                   6.8400            -2.728106E+01            -5.055893E+01            -2.078884E+01             5.946128E+00             2.706070E+01             2.184510E+01             3.477772E+01
                   7.0200            -2.797151E+01            -5.065344E+01            -2.142942E+01             5.960103E+00             2.772583E+01             2.190408E+01             3.533427E+01
                   7.2000            -2.866160E+01            -5.074802E+01            -2.206964E+01             5.973906E+00             2.839054E+01             2.196268E+01             3.589404E+01
                   7.3800            -2.935132E+01            -5.084270E+01            -2.270951E+01             5.987531E+00             2.905480E+01             2.202091E+01             3.645685E+01
                   7.5600            -3.004066E+01            -5.093748E+01            -2.334901E+01             6.000970E+00             2.971861E+01             2.207881E+01             3.702255E+01
                   7.7400            -3.072962E+01            -5.103236E+01            -2.398814E+01             6.014216E+00             3.038194E+01             2.213636E+01             3.759097E+01
                   7.9200            -3.141819E+01            -5.112736E+01            -2.462689E+01             6.027261E+00             3.104479E+01             2.219360E+01             3.816196E+01
                   8.1000            -3.210635E+01            -5.122248E+01            -2.526526E+01             6.040098E+00             3.170714E+01             2.225054E+01             3.873538E+01
                   8.2800            -3.279410E+01            -5.131774E+01            -2.590325E+01             6.052720E+00             3.236898E+01             2.230720E+01             3.931109E+01
                   8.4600            -3.348144E+01            -5.141314E+01            -2.654083E+01             6.065118E+00             3.303028E+01             2.236359E+01             3.988896E+01
                   8.6400            -3.416835E+01            -5.150868E+01            -2.717801E+01             6.077287E+00             3.369103E+01             2.241973E+01             4.046887E+01
                   8.8200            -3.485482E+01            -5.160439E+01            -2.781479E+01             6.089219E+00             3.435122E+01             2.247564E+01             4.105071E+01
                   9.0000            -3.554086E+01            -5.170025E+01            -2.845115E+01             6.100906E+00             3.501084E+01             2.253133E+01             4.163436E+01
                   9.1800            -3.622644E+01            -5.179629E+01            -2.908709E+01             6.112342E+00             3.566986E+01             2.258683E+01             4.221971E+01
                   9.3600            -3.691156E+01            -5.189251E+01            -2.972260E+01             6.123519E+00             3.632828E+01             2.264215E+01             4.280667E+01
                   9.5400            -3.759622E+01            -5.198892E+01            -3.035767E+01             6.134431E+00             3.698607E+01             2.269731E+01             4.339513E+01
                   9.7200            -3.828041E+01            -5.208552E+01            -3.099231E+01             6.145070E+00             3.764322E+01             2.275234E+01             4.398501E+01
                   9.9000            -3.896411E+01            -5.218232E+01            -3.162649E+01             6.155430E+00             3.829972E+01             2.280724E+01             4.457621E+01
                  10.0800            -3.964732E+01            -5.227932E+01            -3.226023E+01             6.165505E+00             3.895555E+01             2.286204E+01             4.516866E+01
                  10.2600            -4.033002E+01            -5.237654E+01            -3.289350E+01             6.175287E+00             3.961069E+01             2.291676E+01             4.576226E+01
                  10.4400            -4.101222E+01            -5.247398E+01            -3.352631E+01             6.184770E+00             4.026513E+01             2.297142E+01             4.635695E+01
                  10.6200            -4.169390E+01            -5.257164E+01            -3.415864E+01             6.193949E+00             4.091885E+01             2.302604E+01             4.695264E+01
                  10.8000            -4.237506E+01            -5.266953E+01            -3.479049E+01             6.202816E+00             4.157184E+01             2.308062E+01             4.754927E+01
                  10.9800            -4.305567E+01            -5.276765E+01            -3.542185E+01             6.211366E+00             4.222408E+01             2.313520E+01             4.814676E+01
                  11.1600            -4.373574E+01            -5.286601E+01            -3.605272E+01             6.219594E+00             4.287556E+01             2.318980E+01             4.874505E+01
                  11.3400            -4.441525E+01            -5.296461E+01            -3.668309E+01             6.227493E+00             4.352626E+01             2.324442E+01             4.934408E+01
                  11.5200            -4.509420E+01            -5.306345E+01            -3.731294E+01             6.235057E+00             4.417616E+01             2.329909E+01             4.994377E+01
                  11.7000            -4.577258E+01            -5.316255E+01            -3.794228E+01             6.242283E+00             4.482525E+01             2.335382E+01             5.054408E+01
                  11.8800            -4.645036E+01            -5.326189E+01            -3.857110E+01             6.249164E+00             4.547351E+01             2.340863E+01             5.114493E+01
                  12.0600            -4.712755E+01            -5.336148E+01            -3.919938E+01             6.255696E+00             4.612093E+01             2.346354E+01             5.174629E+01
                  12.2400            -4.780414E+01            -5.346133E+01            -3.982713E+01             6.261875E+00             4.676750E+01             2.351856E+01             5.234808E+01
                  12.4200            -4.848010E+01            -5.356143E+01            -4.045433E+01             6.267694E+00             4.741319E+01             2.357371E+01             5.295026E+01
                  12.6000            -4.915544E+01            -5.366178E+01            -4.108098E+01             6.273152E+00             4.805799E+01             2.362900E+01             5.355278E+01
                  12.7800            -4.983014E+01            -5.376239E+01            -4.170706E+01             6.278243E+00             4.870188E+01             2.368445E+01             5.415558E+01
                  12.9600            -5.050418E+01            -5.386325E+01            -4.233257E+01             6.282963E+00             4.934486E+01             2.374006E+01             5.475862E+01
                  13.1400            -5.117756E+01            -5.396436E+01            -4.295751E+01             6.287310E+00             4.998691E+01             2.379585E+01             5.536184E+01
                  13.3200            -5.185026E+01            -5.406572E+01            -4.358185E+01             6.291280E+00             5.062800E+01             2.385183E+01             5.596521E+01
                  13.5000            -5.252227E+01            -5.416732E+01            -4.420560E+01             6.294869E+00             5.126813E+01             2.390801E+01             5.656867E+01
                  13.6800            -5.319358E+01            -5.426917E+01            -4.482875E+01             6.298076E+00             5.190728E+01             2.396440E+01             5.717218E+01
                  13.8600            -5.386417E+01            -5.437126E+01            -4.545128E+01             6.300897E+00             5.254544E+01             2.402100E+01             5.777570E+01
                  14.0400            -5.453403E+01            -5.447358E+01            -4.607320E+01             6.303330E+00             5.318259E+01             2.407782E+01             5.837918E+01
                  14.2200            -5.520315E+01            -5.457614E+01            -4.669448E+01             6.305374E+00             5.381871E+01             2.413487E+01             5.898259E+01
                  14.4000            -5.587151E+01            -5.467892E+01            -4.731512E+01             6.307026E+00             5.445380E+01             2.419216E+01             5.958588E+01
                  14.5800            -5.653910E+01            -5.478191E+01            -4.793511E+01             6.308285E+00             5.508784E+01             2.424968E+01             6.018901E+01
                  14.7600            -5.720590E+01            -5.488512E+01            -4.855444E+01             6.309149E+00             5.572081E+01             2.430744E+01             6.079195E+01
                  14.9400            -5.787191E+01            -5.498854E+01            -4.917311E+01             6.309617E+00             5.635271E+01             2.436543E+01             6.139464E+01
                  15.1200            -5.853709E+01            -5.509215E+01            -4.979109E+01             6.309689E+00             5.698351E+01             2.442367E+01             6.199707E+01
                  15.3000            -5.920144E+01            -5.519596E+01            -5.040839E+01             6.309363E+00             5.761321E+01             2.448214E+01             6.259918E+01
                  15.4800            -5.986495E+01            -5.529994E+01            -5.102499E+01             6.308640E+00             5.824180E+01             2.454085E+01             6.320095E+01
                  15.6600            -6.052759E+01            -5.540410E+01            -5.164088E+01             6.307519E+00             5.886925E+01             2.459978E+01             6.380233E+01
                  15.8400            -6.118936E+01            -5.550842E+01            -5.225606E+01             6.305999E+00             5.949555E+01             2.465895E+01             6.440330E+01
                  16.0200            -6.185022E+01            -5.561290E+01            -5.287050E+01             6.304082E+00             6.012070E+01             2.471834E+01             6.500381E+01
                  16.2000            -6.251018E+01            -5.571752E+01            -5.348421E+01             6.301767E+00             6.074468E+01             2.477794E+01             6.560383E+01
                  16.3800            -6.316920E+01            -5.582227E+01            -5.409717E+01             6.299055E+00             6.136749E+01             2.483774E+01             6.620334E+01
                  16.5600            -6.382728E+01            -5.592715E+01            -5.470937E+01             6.295947E+00             6.198910E+01             2.489775E+01             6.680229E+01
                  16.7400            -6.448440E+01            -5.603214E+01            -5.532080E+01             6.292442E+00             6.260950E+01             2.495794E+01             6.740066E+01
                  16.9200            -6.514053E+01            -5.613723E+01            -5.593145E+01             6.288543E+00             6.322869E+01             2.501831E+01             6.799841E+01
                  17.1000            -6.579567E+01            -5.624241E+01            -5.654131E+01             6.284251E+00             6.384666E+01             2.507884E+01             6.859551E+01
                  17.2800            -6.644979E+01            -5.634767E+01            -5.715037E+01             6.279565E+00             6.446339E+01             2.513952E+01             6.919193E+01
                  17.4600            -6.710289E+01            -5.645300E+01            -5.775861E+01             6.274489E+00             6.507887E+01             2.520034E+01             6.978765E+01
