                   Degree              F_vhoc_n[N]              F_vhoc_t[N]                 F_1_n[N]                 F_2_n[N]                  F_cx[N]                  F_cy[N]           F_resultant[N]
                   0.0000            -1.107408E+00            -4.871857E+01             3.767128E+00             5.224900E+00             1.457772E+00             2.000661E+01             2.005965E+01
                   0.1800            -1.241731E-01            -4.587970E+01             4.125991E+00             6.306759E+00             2.187173E+00             1.862368E+01             1.875168E+01
                   0.3600            -4.698486E-01            -4.586147E+01             3.817930E+00             6.287766E+00             2.482788E+00             1.859687E+01             1.876188E+01
                   0.5400            -8.207053E-01            -4.585943E+01             3.507648E+00             6.265653E+00             2.777649E+00             1.857879E+01             1.878529E+01
                   0.7200            -1.172470E+00            -4.586514E+01             3.197450E+00             6.243677E+00             3.072701E+00             1.856531E+01             1.881787E+01
                   0.9000            -1.523327E+00            -4.587509E+01             2.888338E+00             6.223169E+00             3.368269E+00             1.855453E+01             1.885778E+01
                   1.0800            -1.872658E+00            -4.588806E+01             2.580645E+00             6.204593E+00             3.664481E+00             1.854569E+01             1.890426E+01
                   1.2600            -2.220271E+00            -4.590352E+01             2.274449E+00             6.188134E+00             3.961442E+00             1.853833E+01             1.895687E+01
                   1.4400            -2.566040E+00            -4.592128E+01             1.969833E+00             6.173851E+00             4.259124E+00             1.853220E+01             1.901532E+01
                   1.6200            -2.909966E+00            -4.594129E+01             1.666794E+00             6.161742E+00             4.557529E+00             1.852710E+01             1.907943E+01
                   1.8000            -3.252033E+00            -4.596354E+01             1.365349E+00             6.151804E+00             4.856636E+00             1.852286E+01             1.914897E+01
                   1.9800            -3.592282E+00            -4.598803E+01             1.065462E+00             6.144022E+00             5.156469E+00             1.851932E+01             1.922379E+01
                   2.1600            -3.930701E+00            -4.601476E+01             7.671528E-01             6.138381E+00             5.456992E+00             1.851631E+01             1.930369E+01
                   2.3400            -4.267320E+00            -4.604376E+01             4.704005E-01             6.134865E+00             5.758216E+00             1.851370E+01             1.938851E+01
                   2.5200            -4.602144E+00            -4.607503E+01             1.752075E-01             6.133457E+00             6.060125E+00             1.851133E+01             1.947805E+01
                   2.7000            -4.935188E+00            -4.610859E+01            -1.184312E-01             6.134142E+00             6.362712E+00             1.850906E+01             1.957216E+01
                   2.8800            -5.266473E+00            -4.614446E+01            -4.105284E-01             6.136904E+00             6.665979E+00             1.850673E+01             1.967065E+01
                   3.0600            -5.596009E+00            -4.618263E+01            -7.010845E-01             6.141719E+00             6.969911E+00             1.850421E+01             1.977336E+01
                   3.2400            -5.923844E+00            -4.622307E+01            -9.901355E-01             6.148539E+00             7.274501E+00             1.850136E+01             1.988011E+01
                   3.4200            -6.250747E+00            -4.626453E+01            -1.278363E+00             6.156386E+00             7.579446E+00             1.849809E+01             1.999068E+01
                   3.6000            -6.577455E+00            -4.630578E+01            -1.566424E+00             6.164315E+00             7.884446E+00             1.849441E+01             2.010492E+01
                   3.7800            -6.903972E+00            -4.634684E+01            -1.854319E+00             6.172313E+00             8.189490E+00             1.849033E+01             2.022276E+01
                   3.9600            -7.230309E+00            -4.638773E+01            -2.142056E+00             6.180371E+00             8.494574E+00             1.848586E+01             2.034416E+01
                   4.1400            -7.556466E+00            -4.642848E+01            -2.429631E+00             6.188478E+00             8.799686E+00             1.848102E+01             2.046906E+01
                   4.3200            -7.882452E+00            -4.646910E+01            -2.717051E+00             6.196621E+00             9.104820E+00             1.847581E+01             2.059741E+01
                   4.5000            -8.208268E+00            -4.650963E+01            -3.004312E+00             6.204794E+00             9.409966E+00             1.847026E+01             2.072916E+01
                   4.6800            -8.533922E+00            -4.655008E+01            -3.291421E+00             6.212985E+00             9.715116E+00             1.846437E+01             2.086424E+01
                   4.8600            -8.859420E+00            -4.659047E+01            -3.578378E+00             6.221182E+00             1.002026E+01             1.845816E+01             2.100260E+01
                   5.0400            -9.184767E+00            -4.663084E+01            -3.865186E+00             6.229376E+00             1.032540E+01             1.845165E+01             2.114420E+01
                   5.2200            -9.509969E+00            -4.667120E+01            -4.151847E+00             6.237555E+00             1.063051E+01             1.844487E+01             2.128898E+01
                   5.4000            -9.835033E+00            -4.671157E+01            -4.438363E+00             6.245710E+00             1.093560E+01             1.843782E+01             2.143690E+01
                   5.5800            -1.015996E+01            -4.675198E+01            -4.724736E+00             6.253827E+00             1.124064E+01             1.843054E+01             2.158788E+01
                   5.7600            -1.048477E+01            -4.679246E+01            -5.010971E+00             6.261898E+00             1.154564E+01             1.842305E+01             2.174190E+01
                   5.9400            -1.080945E+01            -4.683301E+01            -5.297066E+00             6.269911E+00             1.185058E+01             1.841537E+01             2.189890E+01
                   6.1200            -1.113402E+01            -4.687368E+01            -5.583027E+00             6.277855E+00             1.215545E+01             1.840753E+01             2.205884E+01
                   6.3000            -1.145849E+01            -4.691448E+01            -5.868856E+00             6.285719E+00             1.246025E+01             1.839956E+01             2.222165E+01
                   6.4800            -1.178285E+01            -4.695543E+01            -6.154554E+00             6.293491E+00             1.276496E+01             1.839150E+01             2.238730E+01
                   6.6600            -1.210713E+01            -4.699656E+01            -6.440125E+00             6.301161E+00             1.306958E+01             1.838336E+01             2.255575E+01
                   6.8400            -1.243131E+01            -4.703789E+01            -6.725571E+00             6.308717E+00             1.337409E+01             1.837518E+01             2.272694E+01
                   7.0200            -1.275542E+01            -4.707945E+01            -7.010896E+00             6.316148E+00             1.367849E+01             1.836700E+01             2.290083E+01
                   7.2000            -1.307946E+01            -4.712126E+01            -7.296100E+00             6.323443E+00             1.398276E+01             1.835885E+01             2.307737E+01
                   7.3800            -1.340343E+01            -4.716335E+01            -7.581189E+00             6.330591E+00             1.428690E+01             1.835078E+01             2.325654E+01
                   7.5600            -1.372735E+01            -4.720573E+01            -7.866164E+00             6.337579E+00             1.459089E+01             1.834280E+01             2.343827E+01
                   7.7400            -1.405122E+01            -4.724843E+01            -8.151028E+00             6.344398E+00             1.489473E+01             1.833498E+01             2.362254E+01
                   7.9200            -1.437504E+01            -4.729148E+01            -8.435784E+00             6.351035E+00             1.519840E+01             1.832734E+01             2.380930E+01
                   8.1000            -1.469883E+01            -4.733489E+01            -8.720434E+00             6.357479E+00             1.550189E+01             1.831992E+01             2.399850E+01
                   8.2800            -1.502260E+01            -4.737869E+01            -9.004982E+00             6.363720E+00             1.580518E+01             1.831278E+01             2.419012E+01
                   8.4600            -1.534634E+01            -4.742290E+01            -9.289428E+00             6.369746E+00             1.610828E+01             1.830595E+01             2.438410E+01
                   8.6400            -1.567007E+01            -4.746755E+01            -9.573777E+00             6.375547E+00             1.641116E+01             1.829947E+01             2.458042E+01
                   8.8200            -1.599380E+01            -4.751266E+01            -9.858032E+00             6.381110E+00             1.671382E+01             1.829339E+01             2.477902E+01
                   9.0000            -1.631752E+01            -4.755824E+01            -1.014219E+01             6.386427E+00             1.701624E+01             1.828776E+01             2.497989E+01
                   9.1800            -1.664125E+01            -4.760432E+01            -1.042627E+01             6.391486E+00             1.731841E+01             1.828263E+01             2.518297E+01
                   9.3600            -1.696500E+01            -4.765091E+01            -1.071025E+01             6.396277E+00             1.762032E+01             1.827803E+01             2.538823E+01
                   9.5400            -1.728877E+01            -4.769805E+01            -1.099415E+01             6.400789E+00             1.792195E+01             1.827402E+01             2.559563E+01
                   9.7200            -1.761256E+01            -4.774574E+01            -1.127796E+01             6.405013E+00             1.822330E+01             1.827064E+01             2.580513E+01
                   9.9000            -1.793639E+01            -4.779400E+01            -1.156169E+01             6.408939E+00             1.852434E+01             1.826794E+01             2.601671E+01
                  10.0800            -1.826025E+01            -4.784286E+01            -1.184534E+01             6.412558E+00             1.882507E+01             1.826597E+01             2.623031E+01
                  10.2600            -1.858415E+01            -4.789233E+01            -1.212891E+01             6.415861E+00             1.912548E+01             1.826478E+01             2.644590E+01
                  10.4400            -1.890810E+01            -4.794242E+01            -1.241241E+01             6.418839E+00             1.942554E+01             1.826440E+01             2.666346E+01
                  10.6200            -1.923210E+01            -4.799315E+01            -1.269582E+01             6.421483E+00             1.972525E+01             1.826489E+01             2.688292E+01
                  10.8000            -1.955615E+01            -4.804453E+01            -1.297916E+01             6.423786E+00             2.002459E+01             1.826629E+01             2.710427E+01
                  10.9800            -1.988025E+01            -4.809657E+01            -1.326243E+01             6.425739E+00             2.032355E+01             1.826865E+01             2.732747E+01
                  11.1600            -2.020442E+01            -4.814929E+01            -1.354561E+01             6.427336E+00             2.062212E+01             1.827201E+01             2.755246E+01
                  11.3400            -2.052864E+01            -4.820269E+01            -1.382873E+01             6.428570E+00             2.092028E+01             1.827642E+01             2.777923E+01
                  11.5200            -2.085292E+01            -4.825679E+01            -1.411176E+01             6.429435E+00             2.121802E+01             1.828191E+01             2.800772E+01
                  11.7000            -2.117727E+01            -4.831159E+01            -1.439472E+01             6.429924E+00             2.151532E+01             1.828852E+01             2.823790E+01
                  11.8800            -2.150168E+01            -4.836710E+01            -1.467760E+01             6.430034E+00             2.181217E+01             1.829630E+01             2.846973E+01
                  12.0600            -2.182614E+01            -4.842332E+01            -1.496041E+01             6.429758E+00             2.210856E+01             1.830528E+01             2.870317E+01
                  12.2400            -2.215066E+01            -4.848026E+01            -1.524312E+01             6.429092E+00             2.240448E+01             1.831549E+01             2.893817E+01
                  12.4200            -2.247524E+01            -4.853791E+01            -1.552576E+01             6.428034E+00             2.269990E+01             1.832698E+01             2.917471E+01
                  12.6000            -2.279987E+01            -4.859628E+01            -1.580831E+01             6.426579E+00             2.299483E+01             1.833976E+01             2.941273E+01
                  12.7800            -2.312455E+01            -4.865536E+01            -1.609077E+01             6.424726E+00             2.328924E+01             1.835387E+01             2.965220E+01
                  12.9600            -2.344926E+01            -4.871516E+01            -1.637314E+01             6.422473E+00             2.358312E+01             1.836934E+01             2.989308E+01
                  13.1400            -2.377402E+01            -4.877567E+01            -1.665541E+01             6.419818E+00             2.387646E+01             1.838618E+01             3.013531E+01
                  13.3200            -2.409880E+01            -4.883689E+01            -1.693758E+01             6.416760E+00             2.416924E+01             1.840443E+01             3.037886E+01
                  13.5000            -2.442360E+01            -4.889880E+01            -1.721965E+01             6.413300E+00             2.446147E+01             1.842409E+01             3.062369E+01
                  13.6800            -2.474842E+01            -4.896139E+01            -1.750160E+01             6.409437E+00             2.475311E+01             1.844519E+01             3.086975E+01
                  13.8600            -2.507324E+01            -4.902467E+01            -1.778344E+01             6.405174E+00             2.504416E+01             1.846773E+01             3.111699E+01
                  14.0400            -2.539805E+01            -4.908861E+01            -1.806516E+01             6.400512E+00             2.533462E+01             1.849173E+01             3.136538E+01
                  14.2200            -2.572285E+01            -4.915320E+01            -1.834675E+01             6.395453E+00             2.562446E+01             1.851720E+01             3.161486E+01
                  14.4000            -2.604762E+01            -4.921843E+01            -1.862820E+01             6.390001E+00             2.591368E+01             1.854413E+01             3.186540E+01
                  14.5800            -2.637234E+01            -4.928428E+01            -1.890951E+01             6.384158E+00             2.620227E+01             1.857253E+01             3.211694E+01
                  14.7600            -2.669701E+01            -4.935074E+01            -1.919068E+01             6.377929E+00             2.649022E+01             1.860240E+01             3.236945E+01
                  14.9400            -2.702161E+01            -4.941778E+01            -1.947168E+01             6.371318E+00             2.677752E+01             1.863373E+01             3.262286E+01
                  15.1200            -2.734613E+01            -4.948539E+01            -1.975253E+01             6.364331E+00             2.706415E+01             1.866651E+01             3.287715E+01
                  15.3000            -2.767054E+01            -4.955354E+01            -2.003319E+01             6.356973E+00             2.735012E+01             1.870074E+01             3.313226E+01
                  15.4800            -2.799484E+01            -4.962222E+01            -2.031368E+01             6.349250E+00             2.763541E+01             1.873639E+01             3.338814E+01
                  15.6600            -2.831900E+01            -4.969140E+01            -2.059397E+01             6.341169E+00             2.792001E+01             1.877345E+01             3.364475E+01
                  15.8400            -2.864301E+01            -4.976105E+01            -2.087407E+01             6.332737E+00             2.820392E+01             1.881191E+01             3.390205E+01
                  16.0200            -2.896685E+01            -4.983116E+01            -2.115395E+01             6.323961E+00             2.848713E+01             1.885173E+01             3.415998E+01
                  16.2000            -2.929051E+01            -4.990169E+01            -2.143361E+01             6.314850E+00             2.876964E+01             1.889289E+01             3.441850E+01
                  16.3800            -2.961396E+01            -4.997262E+01            -2.171305E+01             6.305410E+00             2.905143E+01             1.893537E+01             3.467757E+01
                  16.5600            -2.993718E+01            -5.004393E+01            -2.199224E+01             6.295651E+00             2.933251E+01             1.897912E+01             3.493713E+01
                  16.7400            -3.026015E+01            -5.011558E+01            -2.227118E+01             6.285582E+00             2.961287E+01             1.902413E+01             3.519715E+01
                  16.9200            -3.058286E+01            -5.018754E+01            -2.254985E+01             6.275211E+00             2.989250E+01             1.907035E+01             3.545757E+01
                  17.1000            -3.090527E+01            -5.025980E+01            -2.282826E+01             6.264547E+00             3.017139E+01             1.911775E+01             3.571836E+01
                  17.2800            -3.122739E+01            -5.033232E+01            -2.310638E+01             6.253601E+00             3.044956E+01             1.916628E+01             3.597946E+01
                  17.4600            -3.154917E+01            -5.040507E+01            -2.338420E+01             6.242381E+00             3.072698E+01             1.921591E+01             3.624084E+01
