                   Degree              F_vhoc_n[N]              F_vhoc_t[N]                 F_1_n[N]                 F_2_n[N]                  F_cx[N]                  F_cy[N]           F_resultant[N]
                   0.0000            -1.170449E+00            -4.855534E+01             3.715702E+00             5.102882E+00             1.387181E+00             1.995190E+01             2.000007E+01
                   0.1800            -7.247457E-01            -4.655419E+01             3.727736E+00             5.889039E+00             2.167810E+00             1.899563E+01             1.911893E+01
                   0.3600            -1.169831E+00            -4.657587E+01             3.324435E+00             5.880222E+00             2.568921E+00             1.900686E+01             1.917968E+01
                   0.5400            -1.616511E+00            -4.660465E+01             2.920671E+00             5.870809E+00             2.970019E+00             1.902190E+01             1.925237E+01
                   0.7200            -2.063376E+00            -4.663777E+01             2.517213E+00             5.861858E+00             3.371390E+00             1.903939E+01             1.933558E+01
                   0.9000            -2.509631E+00            -4.667382E+01             2.114527E+00             5.853904E+00             3.773100E+00             1.905854E+01             1.942844E+01
                   1.0800            -2.954915E+00            -4.671208E+01             1.712809E+00             5.847212E+00             4.175216E+00             1.907888E+01             1.953039E+01
                   1.2600            -3.399126E+00            -4.675220E+01             1.312080E+00             5.841915E+00             4.577848E+00             1.910013E+01             1.964107E+01
                   1.4400            -3.842128E+00            -4.679400E+01             9.124367E-01             5.838066E+00             4.980951E+00             1.912207E+01             1.976015E+01
                   1.6200            -4.283893E+00            -4.683742E+01             5.138918E-01             5.835689E+00             5.384536E+00             1.914456E+01             1.988737E+01
                   1.8000            -4.724384E+00            -4.688241E+01             1.164757E-01             5.834789E+00             5.788578E+00             1.916746E+01             2.002247E+01
                   1.9800            -5.163637E+00            -4.692897E+01            -2.798481E-01             5.835364E+00             6.193114E+00             1.919066E+01             2.016522E+01
                   2.1600            -5.601615E+00            -4.697710E+01            -6.750427E-01             5.837407E+00             6.598099E+00             1.921403E+01             2.031536E+01
                   2.3400            -6.038343E+00            -4.702679E+01            -1.069127E+00             5.840911E+00             7.003549E+00             1.923747E+01             2.047266E+01
                   2.5200            -6.473811E+00            -4.707807E+01            -1.462090E+00             5.845865E+00             7.409444E+00             1.926088E+01             2.063690E+01
                   2.7000            -6.908023E+00            -4.713094E+01            -1.853930E+00             5.852259E+00             7.815776E+00             1.928416E+01             2.080781E+01
                   2.8800            -7.340994E+00            -4.718541E+01            -2.244656E+00             5.860082E+00             8.222547E+00             1.930720E+01             2.098519E+01
                   3.0600            -7.772721E+00            -4.724148E+01            -2.634263E+00             5.869315E+00             8.629737E+00             1.932990E+01             2.116878E+01
                   3.2400            -8.203775E+00            -4.729822E+01            -3.023256E+00             5.879239E+00             9.037126E+00             1.935218E+01             2.135829E+01
                   3.4200            -8.634654E+00            -4.735480E+01            -3.412079E+00             5.889213E+00             9.444513E+00             1.937404E+01             2.155348E+01
                   3.6000            -9.065356E+00            -4.741124E+01            -3.800730E+00             5.899226E+00             9.851883E+00             1.939549E+01             2.175418E+01
                   3.7800            -9.495879E+00            -4.746754E+01            -4.189207E+00             5.909267E+00             1.025922E+01             1.941652E+01             2.196025E+01
                   3.9600            -9.926231E+00            -4.752373E+01            -4.577515E+00             5.919329E+00             1.066653E+01             1.943714E+01             2.217154E+01
                   4.1400            -1.035640E+01            -4.757982E+01            -4.965644E+00             5.929404E+00             1.107379E+01             1.945736E+01             2.238789E+01
                   4.3200            -1.078640E+01            -4.763583E+01            -5.353600E+00             5.939482E+00             1.148100E+01             1.947720E+01             2.260917E+01
                   4.5000            -1.121621E+01            -4.769176E+01            -5.741376E+00             5.949556E+00             1.188814E+01             1.949665E+01             2.283522E+01
                   4.6800            -1.164586E+01            -4.774763E+01            -6.128977E+00             5.959613E+00             1.229520E+01             1.951573E+01             2.306590E+01
                   4.8600            -1.207532E+01            -4.780348E+01            -6.516395E+00             5.969655E+00             1.270218E+01             1.953446E+01             2.330108E+01
                   5.0400            -1.250461E+01            -4.785929E+01            -6.903635E+00             5.979664E+00             1.310906E+01             1.955284E+01             2.354063E+01
                   5.2200            -1.293372E+01            -4.791509E+01            -7.290694E+00             5.989630E+00             1.351584E+01             1.957089E+01             2.378440E+01
                   5.4000            -1.336265E+01            -4.797091E+01            -7.677569E+00             5.999553E+00             1.392251E+01             1.958862E+01             2.403228E+01
                   5.5800            -1.379140E+01            -4.802675E+01            -8.064258E+00             6.009420E+00             1.432905E+01             1.960605E+01             2.428413E+01
                   5.7600            -1.421998E+01            -4.808263E+01            -8.450765E+00             6.019223E+00             1.473545E+01             1.962320E+01             2.453984E+01
                   5.9400            -1.464839E+01            -4.813857E+01            -8.837083E+00             6.028953E+00             1.514171E+01             1.964008E+01             2.479928E+01
                   6.1200            -1.507662E+01            -4.819457E+01            -9.223216E+00             6.038600E+00             1.554782E+01             1.965671E+01             2.506234E+01
                   6.3000            -1.550467E+01            -4.825067E+01            -9.609161E+00             6.048157E+00             1.595376E+01             1.967311E+01             2.532891E+01
                   6.4800            -1.593255E+01            -4.830687E+01            -9.994916E+00             6.057614E+00             1.635952E+01             1.968930E+01             2.559888E+01
                   6.6600            -1.636026E+01            -4.836319E+01            -1.038048E+01             6.066963E+00             1.676510E+01             1.970531E+01             2.587214E+01
                   6.8400            -1.678779E+01            -4.841965E+01            -1.076586E+01             6.076195E+00             1.717048E+01             1.972115E+01             2.614860E+01
                   7.0200            -1.721516E+01            -4.847626E+01            -1.115104E+01             6.085300E+00             1.757565E+01             1.973685E+01             2.642814E+01
                   7.2000            -1.764235E+01            -4.853303E+01            -1.153603E+01             6.094270E+00             1.798060E+01             1.975244E+01             2.671069E+01
                   7.3800            -1.806938E+01            -4.859000E+01            -1.192084E+01             6.103096E+00             1.838532E+01             1.976793E+01             2.699613E+01
                   7.5600            -1.849624E+01            -4.864716E+01            -1.230544E+01             6.111769E+00             1.878980E+01             1.978336E+01             2.728439E+01
                   7.7400            -1.892293E+01            -4.870455E+01            -1.268985E+01             6.120281E+00             1.919403E+01             1.979876E+01             2.757538E+01
                   7.9200            -1.934946E+01            -4.876216E+01            -1.307407E+01             6.128621E+00             1.959799E+01             1.981414E+01             2.786900E+01
                   8.1000            -1.977583E+01            -4.882003E+01            -1.345810E+01             6.136783E+00             2.000168E+01             1.982954E+01             2.816519E+01
                   8.2800            -2.020203E+01            -4.887816E+01            -1.384192E+01             6.144755E+00             2.040508E+01             1.984499E+01             2.846385E+01
                   8.4600            -2.062807E+01            -4.893657E+01            -1.422555E+01             6.152531E+00             2.080817E+01             1.986052E+01             2.876492E+01
                   8.6400            -2.105395E+01            -4.899527E+01            -1.460898E+01             6.160101E+00             2.121096E+01             1.987616E+01             2.906831E+01
                   8.8200            -2.147967E+01            -4.905428E+01            -1.499221E+01             6.167456E+00             2.161343E+01             1.989194E+01             2.937396E+01
                   9.0000            -2.190524E+01            -4.911362E+01            -1.537525E+01             6.174589E+00             2.201556E+01             1.990789E+01             2.968180E+01
                   9.1800            -2.233064E+01            -4.917330E+01            -1.575808E+01             6.181490E+00             2.241734E+01             1.992405E+01             2.999175E+01
                   9.3600            -2.275589E+01            -4.923333E+01            -1.614071E+01             6.188152E+00             2.281877E+01             1.994044E+01             3.030375E+01
                   9.5400            -2.318098E+01            -4.929373E+01            -1.652314E+01             6.194566E+00             2.321982E+01             1.995710E+01             3.061773E+01
                   9.7200            -2.360592E+01            -4.935451E+01            -1.690536E+01             6.200724E+00             2.362048E+01             1.997406E+01             3.093364E+01
                   9.9000            -2.403070E+01            -4.941568E+01            -1.728738E+01             6.206619E+00             2.402075E+01             1.999136E+01             3.125141E+01
                  10.0800            -2.445532E+01            -4.947725E+01            -1.766919E+01             6.212243E+00             2.442060E+01             2.000903E+01             3.157099E+01
                  10.2600            -2.487979E+01            -4.953924E+01            -1.805080E+01             6.217589E+00             2.482004E+01             2.002710E+01             3.189230E+01
                  10.4400            -2.530410E+01            -4.960165E+01            -1.843219E+01             6.222649E+00             2.521903E+01             2.004560E+01             3.221530E+01
                  10.6200            -2.572825E+01            -4.966450E+01            -1.881337E+01             6.227416E+00             2.561758E+01             2.006457E+01             3.253994E+01
                  10.8000            -2.615224E+01            -4.972779E+01            -1.919434E+01             6.231884E+00             2.601566E+01             2.008404E+01             3.286614E+01
                  10.9800            -2.657607E+01            -4.979154E+01            -1.957510E+01             6.236046E+00             2.641327E+01             2.010404E+01             3.319387E+01
                  11.1600            -2.699974E+01            -4.985575E+01            -1.995563E+01             6.239897E+00             2.681039E+01             2.012461E+01             3.352308E+01
                  11.3400            -2.742324E+01            -4.992043E+01            -2.033595E+01             6.243429E+00             2.720700E+01             2.014576E+01             3.385370E+01
                  11.5200            -2.784658E+01            -4.998559E+01            -2.071604E+01             6.246639E+00             2.760310E+01             2.016754E+01             3.418568E+01
                  11.7000            -2.826974E+01            -5.005123E+01            -2.109591E+01             6.249520E+00             2.799868E+01             2.018997E+01             3.451899E+01
                  11.8800            -2.869273E+01            -5.011735E+01            -2.147554E+01             6.252068E+00             2.839371E+01             2.021307E+01             3.485356E+01
                  12.0600            -2.911553E+01            -5.018396E+01            -2.185495E+01             6.254279E+00             2.878818E+01             2.023688E+01             3.518936E+01
                  12.2400            -2.953816E+01            -5.025106E+01            -2.223411E+01             6.256147E+00             2.918209E+01             2.026142E+01             3.552632E+01
                  12.4200            -2.996059E+01            -5.031865E+01            -2.261304E+01             6.257670E+00             2.957542E+01             2.028672E+01             3.586442E+01
                  12.6000            -3.038283E+01            -5.038674E+01            -2.299172E+01             6.258844E+00             2.996815E+01             2.031279E+01             3.620359E+01
                  12.7800            -3.080486E+01            -5.045532E+01            -2.337016E+01             6.259667E+00             3.036028E+01             2.033967E+01             3.654379E+01
                  12.9600            -3.122669E+01            -5.052439E+01            -2.374834E+01             6.260135E+00             3.075178E+01             2.036736E+01             3.688498E+01
                  13.1400            -3.164830E+01            -5.059395E+01            -2.412626E+01             6.260247E+00             3.114266E+01             2.039589E+01             3.722711E+01
                  13.3200            -3.206969E+01            -5.066399E+01            -2.450392E+01             6.260001E+00             3.153289E+01             2.042527E+01             3.757013E+01
                  13.5000            -3.249084E+01            -5.073452E+01            -2.488131E+01             6.259395E+00             3.192247E+01             2.045551E+01             3.791401E+01
                  13.6800            -3.291176E+01            -5.080552E+01            -2.525842E+01             6.258430E+00             3.231138E+01             2.048664E+01             3.825869E+01
                  13.8600            -3.333242E+01            -5.087698E+01            -2.563526E+01             6.257103E+00             3.269961E+01             2.051866E+01             3.860414E+01
                  14.0400            -3.375282E+01            -5.094891E+01            -2.601181E+01             6.255417E+00             3.308714E+01             2.055158E+01             3.895031E+01
                  14.2200            -3.417295E+01            -5.102129E+01            -2.638806E+01             6.253369E+00             3.347398E+01             2.058540E+01             3.929715E+01
                  14.4000            -3.459279E+01            -5.109411E+01            -2.676401E+01             6.250963E+00             3.386010E+01             2.062013E+01             3.964462E+01
                  14.5800            -3.501234E+01            -5.116737E+01            -2.713966E+01             6.248199E+00             3.424549E+01             2.065578E+01             3.999269E+01
                  14.7600            -3.543158E+01            -5.124104E+01            -2.751499E+01             6.245078E+00             3.463015E+01             2.069234E+01             4.034130E+01
                  14.9400            -3.585050E+01            -5.131512E+01            -2.788999E+01             6.241602E+00             3.501407E+01             2.072981E+01             4.069042E+01
                  15.1200            -3.626908E+01            -5.138960E+01            -2.826467E+01             6.237775E+00             3.539723E+01             2.076819E+01             4.104000E+01
                  15.3000            -3.668731E+01            -5.146445E+01            -2.863901E+01             6.233598E+00             3.577962E+01             2.080748E+01             4.139000E+01
                  15.4800            -3.710519E+01            -5.153967E+01            -2.901300E+01             6.229075E+00             3.616124E+01             2.084765E+01             4.174039E+01
                  15.6600            -3.752268E+01            -5.161524E+01            -2.938664E+01             6.224209E+00             3.654208E+01             2.088871E+01             4.209111E+01
                  15.8400            -3.793978E+01            -5.169115E+01            -2.975991E+01             6.219004E+00             3.692212E+01             2.093065E+01             4.244214E+01
                  16.0200            -3.835647E+01            -5.176736E+01            -3.013281E+01             6.213464E+00             3.730136E+01             2.097344E+01             4.279342E+01
                  16.2000            -3.877273E+01            -5.184388E+01            -3.050533E+01             6.207594E+00             3.767980E+01             2.101707E+01             4.314492E+01
                  16.3800            -3.918856E+01            -5.192068E+01            -3.087745E+01             6.201397E+00             3.805742E+01             2.106152E+01             4.349661E+01
                  16.5600            -3.960392E+01            -5.199774E+01            -3.124918E+01             6.194880E+00             3.843421E+01             2.110678E+01             4.384843E+01
                  16.7400            -4.001881E+01            -5.207504E+01            -3.162049E+01             6.188046E+00             3.881018E+01             2.115283E+01             4.420036E+01
                  16.9200            -4.043320E+01            -5.215257E+01            -3.199139E+01             6.180901E+00             3.918530E+01             2.119963E+01             4.455236E+01
                  17.1000            -4.084709E+01            -5.223030E+01            -3.236185E+01             6.173451E+00             3.955959E+01             2.124717E+01             4.490438E+01
                  17.2800            -4.126045E+01            -5.230822E+01            -3.273188E+01             6.165701E+00             3.993302E+01             2.129542E+01             4.525639E+01
                  17.4600            -4.167326E+01            -5.238630E+01            -3.310146E+01             6.157657E+00             4.030560E+01             2.134435E+01             4.560836E+01
