                   Degree           dqdtheta_sc[W]           dqdtheta_dc[W]           dqdtheta_hc[W]       dqdtheta_resoil[W]          dqdtheta_oil[W]
                   0.0000             2.784633E-04             9.860582E+00             0.000000E+00             8.520532E-01             5.929121E+03
                   0.1800             1.353377E-02             9.903897E+00             0.000000E+00             9.069372E-01             5.931065E+03
                   0.3600             2.121585E-02             9.944361E+00             0.000000E+00             9.688829E-01             5.931159E+03
                   0.5400             2.874779E-02             9.982948E+00             0.000000E+00             9.781946E-01             5.931177E+03
                   0.7200             3.626028E-02             1.001871E+01             0.000000E+00             9.759560E-01             5.931178E+03
                   0.9000             4.362992E-02             1.005149E+01             0.000000E+00             9.711109E-01             5.931174E+03
                   1.0800             5.081557E-02             1.008130E+01             0.000000E+00             9.659174E-01             5.931170E+03
                   1.2600             5.782209E-02             1.010815E+01             0.000000E+00             9.609666E-01             5.931165E+03
                   1.4400             6.466733E-02             1.013209E+01             0.000000E+00             9.564150E-01             5.931161E+03
                   1.6200             7.136965E-02             1.015315E+01             0.000000E+00             9.523047E-01             5.931158E+03
                   1.8000             7.794470E-02             1.017137E+01             0.000000E+00             9.486463E-01             5.931155E+03
                   1.9800             8.440518E-02             1.018676E+01             0.000000E+00             9.454423E-01             5.931152E+03
                   2.1600             9.076137E-02             1.019937E+01             0.000000E+00             9.426922E-01             5.931149E+03
                   2.3400             9.702169E-02             1.020922E+01             0.000000E+00             9.403942E-01             5.931147E+03
                   2.5200             1.031931E-01             1.021634E+01             0.000000E+00             9.385452E-01             5.931146E+03
                   2.7000             1.092816E-01             1.022077E+01             0.000000E+00             9.371412E-01             5.931145E+03
                   2.8800             1.152923E-01             1.022255E+01             0.000000E+00             9.361759E-01             5.931144E+03
                   3.0600             1.212296E-01             1.022173E+01             0.000000E+00             9.356402E-01             5.931143E+03
                   3.2400             1.270975E-01             1.021841E+01             0.000000E+00             9.355170E-01             5.931143E+03
                   3.4200             1.328998E-01             1.021290E+01             0.000000E+00             9.357587E-01             5.931144E+03
                   3.6000             1.386397E-01             1.020639E+01             0.000000E+00             9.361862E-01             5.931144E+03
                   3.7800             1.443204E-01             1.019987E+01             0.000000E+00             9.366504E-01             5.931145E+03
                   3.9600             1.499449E-01             1.019340E+01             0.000000E+00             9.371392E-01             5.931145E+03
                   4.1400             1.555159E-01             1.018699E+01             0.000000E+00             9.376491E-01             5.931146E+03
                   4.3200             1.610363E-01             1.018063E+01             0.000000E+00             9.381768E-01             5.931147E+03
                   4.5000             1.665088E-01             1.017432E+01             0.000000E+00             9.387189E-01             5.931147E+03
                   4.6800             1.719361E-01             1.016806E+01             0.000000E+00             9.392721E-01             5.931148E+03
                   4.8600             1.773208E-01             1.016185E+01             0.000000E+00             9.398331E-01             5.931149E+03
                   5.0400             1.826656E-01             1.015570E+01             0.000000E+00             9.403985E-01             5.931150E+03
                   5.2200             1.879733E-01             1.014959E+01             0.000000E+00             9.409649E-01             5.931150E+03
                   5.4000             1.932466E-01             1.014354E+01             0.000000E+00             9.415289E-01             5.931151E+03
                   5.5800             1.984883E-01             1.013753E+01             0.000000E+00             9.420874E-01             5.931152E+03
                   5.7600             2.037014E-01             1.013158E+01             0.000000E+00             9.426369E-01             5.931152E+03
                   5.9400             2.088888E-01             1.012568E+01             0.000000E+00             9.431741E-01             5.931153E+03
                   6.1200             2.140535E-01             1.011983E+01             0.000000E+00             9.436956E-01             5.931154E+03
                   6.3000             2.191986E-01             1.011403E+01             0.000000E+00             9.441983E-01             5.931154E+03
                   6.4800             2.243274E-01             1.010827E+01             0.000000E+00             9.446786E-01             5.931155E+03
                   6.6600             2.294431E-01             1.010257E+01             0.000000E+00             9.451335E-01             5.931155E+03
                   6.8400             2.345492E-01             1.009692E+01             0.000000E+00             9.455594E-01             5.931156E+03
                   7.0200             2.396491E-01             1.009131E+01             0.000000E+00             9.459532E-01             5.931156E+03
                   7.2000             2.447465E-01             1.008576E+01             0.000000E+00             9.463116E-01             5.931157E+03
                   7.3800             2.498449E-01             1.008025E+01             0.000000E+00             9.466313E-01             5.931157E+03
                   7.5600             2.549483E-01             1.007480E+01             0.000000E+00             9.469090E-01             5.931157E+03
                   7.7400             2.600604E-01             1.006939E+01             0.000000E+00             9.471415E-01             5.931158E+03
                   7.9200             2.651852E-01             1.006403E+01             0.000000E+00             9.473256E-01             5.931158E+03
                   8.1000             2.703268E-01             1.005871E+01             0.000000E+00             9.474580E-01             5.931158E+03
                   8.2800             2.754893E-01             1.005345E+01             0.000000E+00             9.475355E-01             5.931158E+03
                   8.4600             2.806769E-01             1.004823E+01             0.000000E+00             9.475549E-01             5.931158E+03
                   8.6400             2.858938E-01             1.004306E+01             0.000000E+00             9.475131E-01             5.931158E+03
                   8.8200             2.911444E-01             1.003794E+01             0.000000E+00             9.474069E-01             5.931157E+03
                   9.0000             2.964332E-01             1.003286E+01             0.000000E+00             9.472333E-01             5.931157E+03
                   9.1800             3.017644E-01             1.002783E+01             0.000000E+00             9.469890E-01             5.931156E+03
                   9.3600             3.071426E-01             1.002285E+01             0.000000E+00             9.466710E-01             5.931156E+03
                   9.5400             3.125722E-01             1.001791E+01             0.000000E+00             9.462763E-01             5.931155E+03
                   9.7200             3.180578E-01             1.001302E+01             0.000000E+00             9.458019E-01             5.931154E+03
                   9.9000             3.236039E-01             1.000818E+01             0.000000E+00             9.452447E-01             5.931153E+03
                  10.0800             3.292149E-01             1.000338E+01             0.000000E+00             9.446018E-01             5.931152E+03
                  10.2600             3.348952E-01             9.998622E+00             0.000000E+00             9.438704E-01             5.931151E+03
                  10.4400             3.406495E-01             9.993913E+00             0.000000E+00             9.430475E-01             5.931150E+03
                  10.6200             3.464819E-01             9.989248E+00             0.000000E+00             9.421303E-01             5.931148E+03
                  10.8000             3.523968E-01             9.984629E+00             0.000000E+00             9.411160E-01             5.931146E+03
                  10.9800             3.583985E-01             9.980053E+00             0.000000E+00             9.400018E-01             5.931145E+03
                  11.1600             3.644910E-01             9.975522E+00             0.000000E+00             9.387850E-01             5.931143E+03
                  11.3400             3.706784E-01             9.971035E+00             0.000000E+00             9.374630E-01             5.931140E+03
                  11.5200             3.769645E-01             9.966592E+00             0.000000E+00             9.360330E-01             5.931138E+03
                  11.7000             3.833532E-01             9.962192E+00             0.000000E+00             9.344926E-01             5.931136E+03
                  11.8800             3.898480E-01             9.957835E+00             0.000000E+00             9.328392E-01             5.931133E+03
                  12.0600             3.964523E-01             9.953521E+00             0.000000E+00             9.310703E-01             5.931130E+03
                  12.2400             4.031693E-01             9.949250E+00             0.000000E+00             9.291834E-01             5.931127E+03
                  12.4200             4.100022E-01             9.945021E+00             0.000000E+00             9.271762E-01             5.931124E+03
                  12.6000             4.169538E-01             9.940835E+00             0.000000E+00             9.250462E-01             5.931121E+03
                  12.7800             4.240266E-01             9.936691E+00             0.000000E+00             9.227911E-01             5.931117E+03
                  12.9600             4.312231E-01             9.932588E+00             0.000000E+00             9.204086E-01             5.931114E+03
                  13.1400             4.385454E-01             9.928527E+00             0.000000E+00             9.178965E-01             5.931110E+03
                  13.3200             4.459953E-01             9.924507E+00             0.000000E+00             9.152526E-01             5.931106E+03
                  13.5000             4.535746E-01             9.920528E+00             0.000000E+00             9.124745E-01             5.931102E+03
                  13.6800             4.612846E-01             9.916590E+00             0.000000E+00             9.095603E-01             5.931097E+03
                  13.8600             4.691263E-01             9.912693E+00             0.000000E+00             9.065076E-01             5.931093E+03
                  14.0400             4.771006E-01             9.908836E+00             0.000000E+00             9.033143E-01             5.931088E+03
                  14.2200             4.852080E-01             9.905019E+00             0.000000E+00             8.999783E-01             5.931083E+03
                  14.4000             4.934487E-01             9.901241E+00             0.000000E+00             8.964974E-01             5.931078E+03
                  14.5800             5.018228E-01             9.897504E+00             0.000000E+00             8.928694E-01             5.931072E+03
                  14.7600             5.103299E-01             9.893805E+00             0.000000E+00             8.890921E-01             5.931067E+03
                  14.9400             5.189694E-01             9.890146E+00             0.000000E+00             8.851632E-01             5.931061E+03
                  15.1200             5.277404E-01             9.886525E+00             0.000000E+00             8.810806E-01             5.931055E+03
                  15.3000             5.366418E-01             9.882944E+00             0.000000E+00             8.768417E-01             5.931049E+03
                  15.4800             5.456721E-01             9.879400E+00             0.000000E+00             8.724441E-01             5.931042E+03
                  15.6600             5.548297E-01             9.875895E+00             0.000000E+00             8.678853E-01             5.931036E+03
                  15.8400             5.641127E-01             9.872427E+00             0.000000E+00             8.631627E-01             5.931029E+03
                  16.0200             5.735187E-01             9.868997E+00             0.000000E+00             8.582733E-01             5.931022E+03
                  16.2000             5.830456E-01             9.865604E+00             0.000000E+00             8.532142E-01             5.931015E+03
                  16.3800             5.926905E-01             9.862249E+00             0.000000E+00             8.479823E-01             5.931008E+03
                  16.5600             6.024507E-01             9.858931E+00             0.000000E+00             8.425740E-01             5.931001E+03
                  16.7400             6.123231E-01             9.855649E+00             0.000000E+00             8.369858E-01             5.930993E+03
                  16.9200             6.223044E-01             9.852404E+00             0.000000E+00             8.312136E-01             5.930986E+03
                  17.1000             6.323914E-01             9.849195E+00             0.000000E+00             8.252531E-01             5.930978E+03
                  17.2800             6.425803E-01             9.846023E+00             0.000000E+00             8.190996E-01             5.930970E+03
                  17.4600             6.528676E-01             9.842886E+00             0.000000E+00             8.127478E-01             5.930962E+03
                  17.6400             6.632493E-01             9.839785E+00             0.000000E+00             8.061921E-01             5.930954E+03
                  17.8200             6.737215E-01             9.836720E+00             0.000000E+00             7.994261E-01             5.930945E+03
                  18.0000             6.842803E-01             9.833690E+00             0.000000E+00             7.924427E-01             5.930937E+03
                  18.1800             6.949213E-01             9.830696E+00             0.000000E+00             7.852343E-01             5.930929E+03
                  18.3600             7.056405E-01             9.827737E+00             0.000000E+00             7.777919E-01             5.930920E+03
                  18.5400             7.164336E-01             9.824812E+00             0.000000E+00             7.701060E-01             5.930912E+03
                  18.7200             7.272962E-01             9.821923E+00             0.000000E+00             7.621653E-01             5.930903E+03
                  18.9000             7.382241E-01             9.819069E+00             0.000000E+00             7.539576E-01             5.930895E+03
                  19.0800             7.492129E-01             9.816249E+00             0.000000E+00             7.454687E-01             5.930886E+03
                  19.2600             7.602583E-01             9.813464E+00             0.000000E+00             7.366826E-01             5.930878E+03
                  19.4400             7.713560E-01             9.810715E+00             0.000000E+00             7.275808E-01             5.930869E+03
                  19.6200             7.825015E-01             9.808000E+00             0.000000E+00             7.181424E-01             5.930861E+03
                  19.8000             7.936908E-01             9.805320E+00             0.000000E+00             7.083430E-01             5.930853E+03
                  19.9800             8.049195E-01             9.802676E+00             0.000000E+00             6.981543E-01             5.930845E+03
                  20.1600             8.161835E-01             9.800068E+00             0.000000E+00             6.875431E-01             5.930838E+03
                  20.3400             8.274786E-01             9.797495E+00             0.000000E+00             6.764704E-01             5.930830E+03
                  20.5200             8.388009E-01             9.794960E+00             0.000000E+00             6.648897E-01             5.930823E+03
                  20.7000             8.501463E-01             9.792461E+00             0.000000E+00             6.527453E-01             5.930817E+03
                  20.8800             8.615111E-01             9.790001E+00             0.000000E+00             6.399697E-01             5.930810E+03
                  21.0600             8.729196E-01             9.798478E+00             0.000000E+00             0.000000E+00             5.931420E+03
                  21.2400             8.843065E-01             9.795975E+00             0.000000E+00             0.000000E+00             5.931401E+03
                  21.4200             8.957019E-01             9.793497E+00             0.000000E+00             0.000000E+00             5.931382E+03
                  21.6000             9.071023E-01             9.791044E+00             0.000000E+00             0.000000E+00             5.931363E+03
                  21.7800             9.185043E-01             9.788617E+00             0.000000E+00             0.000000E+00             5.931344E+03
                  21.9600             9.299047E-01             9.786215E+00             0.000000E+00             0.000000E+00             5.931324E+03
                  22.1400             9.413005E-01             9.783836E+00             0.000000E+00             0.000000E+00             5.931305E+03
                  22.3200             9.526885E-01             9.781483E+00             0.000000E+00             0.000000E+00             5.931286E+03
                  22.5000             9.640661E-01             9.779152E+00             0.000000E+00             0.000000E+00             5.931266E+03
                  22.6800             9.754304E-01             9.776846E+00             0.000000E+00             0.000000E+00             5.931247E+03
                  22.8600             9.867788E-01             9.774562E+00             0.000000E+00             0.000000E+00             5.931228E+03
                  23.0400             9.981088E-01             9.772302E+00             0.000000E+00             0.000000E+00             5.931209E+03
                  23.2200             1.009418E+00             9.770064E+00             0.000000E+00             0.000000E+00             5.931189E+03
                  23.4000             1.020705E+00             9.767848E+00             0.000000E+00             0.000000E+00             5.931170E+03
