                   Degree           dqdtheta_sc[W]           dqdtheta_dc[W]           dqdtheta_hc[W]       dqdtheta_resoil[W]          dqdtheta_oil[W]
                   0.0000             5.181582E-04             4.927759E+00             0.000000E+00             1.457142E+00             6.571363E+03
                   0.1800             2.780037E-02             4.975393E+00             0.000000E+00             1.338835E+00             6.571321E+03
                   0.3600             4.681481E-02             4.979071E+00             0.000000E+00             1.446480E+00             6.571360E+03
                   0.5400             6.410850E-02             4.993407E+00             0.000000E+00             1.479304E+00             6.571375E+03
                   0.7200             8.063877E-02             5.008690E+00             0.000000E+00             1.489369E+00             6.571380E+03
                   0.9000             9.663396E-02             5.022284E+00             0.000000E+00             1.491611E+00             6.571381E+03
                   1.0800             1.121798E-01             5.033305E+00             0.000000E+00             1.491214E+00             6.571381E+03
                   1.2600             1.273302E-01             5.041435E+00             0.000000E+00             1.490147E+00             6.571381E+03
                   1.4400             1.421325E-01             5.046570E+00             0.000000E+00             1.489151E+00             6.571381E+03
                   1.6200             1.566285E-01             5.048692E+00             0.000000E+00             1.488506E+00             6.571381E+03
                   1.8000             1.708538E-01             5.047846E+00             0.000000E+00             1.488313E+00             6.571381E+03
                   1.9800             1.848383E-01             5.044576E+00             0.000000E+00             1.488523E+00             6.571381E+03
                   2.1600             1.986068E-01             5.040959E+00             0.000000E+00             1.488794E+00             6.571381E+03
                   2.3400             2.121806E-01             5.037369E+00             0.000000E+00             1.489068E+00             6.571381E+03
                   2.5200             2.255773E-01             5.033806E+00             0.000000E+00             1.489348E+00             6.571381E+03
                   2.7000             2.388121E-01             5.030269E+00             0.000000E+00             1.489632E+00             6.571381E+03
                   2.8800             2.518979E-01             5.026758E+00             0.000000E+00             1.489923E+00             6.571381E+03
                   3.0600             2.648461E-01             5.023273E+00             0.000000E+00             1.490219E+00             6.571381E+03
                   3.2400             2.776665E-01             5.019814E+00             0.000000E+00             1.490521E+00             6.571381E+03
                   3.4200             2.903679E-01             5.016382E+00             0.000000E+00             1.490827E+00             6.571382E+03
                   3.6000             3.029579E-01             5.012975E+00             0.000000E+00             1.491139E+00             6.571382E+03
                   3.7800             3.154436E-01             5.009595E+00             0.000000E+00             1.491456E+00             6.571382E+03
                   3.9600             3.278314E-01             5.006241E+00             0.000000E+00             1.491776E+00             6.571382E+03
                   4.1400             3.401269E-01             5.002912E+00             0.000000E+00             1.492100E+00             6.571382E+03
                   4.3200             3.523354E-01             4.999610E+00             0.000000E+00             1.492428E+00             6.571382E+03
                   4.5000             3.644618E-01             4.996333E+00             0.000000E+00             1.492759E+00             6.571382E+03
                   4.6800             3.765106E-01             4.993082E+00             0.000000E+00             1.493093E+00             6.571382E+03
                   4.8600             3.884858E-01             4.989857E+00             0.000000E+00             1.493430E+00             6.571382E+03
                   5.0400             4.003915E-01             4.986658E+00             0.000000E+00             1.493769E+00             6.571383E+03
                   5.2200             4.122313E-01             4.983484E+00             0.000000E+00             1.494109E+00             6.571383E+03
                   5.4000             4.240086E-01             4.980337E+00             0.000000E+00             1.494452E+00             6.571383E+03
                   5.5800             4.357269E-01             4.977214E+00             0.000000E+00             1.494795E+00             6.571383E+03
                   5.7600             4.473892E-01             4.974118E+00             0.000000E+00             1.495139E+00             6.571383E+03
                   5.9400             4.589984E-01             4.971047E+00             0.000000E+00             1.495484E+00             6.571383E+03
                   6.1200             4.705577E-01             4.968001E+00             0.000000E+00             1.495829E+00             6.571383E+03
                   6.3000             4.820696E-01             4.964981E+00             0.000000E+00             1.496173E+00             6.571384E+03
                   6.4800             4.935368E-01             4.961986E+00             0.000000E+00             1.496518E+00             6.571384E+03
                   6.6600             5.049621E-01             4.959017E+00             0.000000E+00             1.496861E+00             6.571384E+03
                   6.8400             5.163479E-01             4.956073E+00             0.000000E+00             1.497203E+00             6.571384E+03
                   7.0200             5.276968E-01             4.953154E+00             0.000000E+00             1.497543E+00             6.571384E+03
                   7.2000             5.390111E-01             4.950261E+00             0.000000E+00             1.497881E+00             6.571384E+03
                   7.3800             5.502930E-01             4.947392E+00             0.000000E+00             1.498218E+00             6.571384E+03
                   7.5600             5.615452E-01             4.944549E+00             0.000000E+00             1.498551E+00             6.571384E+03
                   7.7400             5.727699E-01             4.941731E+00             0.000000E+00             1.498882E+00             6.571384E+03
                   7.9200             5.839692E-01             4.938937E+00             0.000000E+00             1.499209E+00             6.571385E+03
                   8.1000             5.951455E-01             4.936169E+00             0.000000E+00             1.499533E+00             6.571385E+03
                   8.2800             6.063010E-01             4.933425E+00             0.000000E+00             1.499852E+00             6.571385E+03
                   8.4600             6.174377E-01             4.930706E+00             0.000000E+00             1.500168E+00             6.571385E+03
                   8.6400             6.285578E-01             4.928012E+00             0.000000E+00             1.500479E+00             6.571385E+03
                   8.8200             6.396635E-01             4.925343E+00             0.000000E+00             1.500785E+00             6.571385E+03
                   9.0000             6.507569E-01             4.922697E+00             0.000000E+00             1.501086E+00             6.571385E+03
                   9.1800             6.618401E-01             4.920077E+00             0.000000E+00             1.501382E+00             6.571385E+03
                   9.3600             6.729151E-01             4.917481E+00             0.000000E+00             1.501672E+00             6.571385E+03
                   9.5400             6.839840E-01             4.914909E+00             0.000000E+00             1.501955E+00             6.571386E+03
                   9.7200             6.950488E-01             4.912361E+00             0.000000E+00             1.502233E+00             6.571386E+03
                   9.9000             7.061115E-01             4.909837E+00             0.000000E+00             1.502504E+00             6.571386E+03
                  10.0800             7.171740E-01             4.907338E+00             0.000000E+00             1.502769E+00             6.571386E+03
                  10.2600             7.282383E-01             4.904862E+00             0.000000E+00             1.503026E+00             6.571386E+03
                  10.4400             7.393063E-01             4.902410E+00             0.000000E+00             1.503277E+00             6.571386E+03
                  10.6200             7.503798E-01             4.899982E+00             0.000000E+00             1.503520E+00             6.571386E+03
                  10.8000             7.614608E-01             4.897578E+00             0.000000E+00             1.503756E+00             6.571386E+03
                  10.9800             7.725510E-01             4.895197E+00             0.000000E+00             1.503984E+00             6.571386E+03
                  11.1600             7.836521E-01             4.892839E+00             0.000000E+00             1.504204E+00             6.571386E+03
                  11.3400             7.947660E-01             4.890505E+00             0.000000E+00             1.504417E+00             6.571386E+03
                  11.5200             8.058942E-01             4.888193E+00             0.000000E+00             1.504622E+00             6.571386E+03
                  11.7000             8.170385E-01             4.885905E+00             0.000000E+00             1.504818E+00             6.571386E+03
                  11.8800             8.282003E-01             4.883640E+00             0.000000E+00             1.505007E+00             6.571387E+03
                  12.0600             8.393812E-01             4.881397E+00             0.000000E+00             1.505187E+00             6.571387E+03
                  12.2400             8.505827E-01             4.879178E+00             0.000000E+00             1.505360E+00             6.571387E+03
                  12.4200             8.618062E-01             4.876980E+00             0.000000E+00             1.505524E+00             6.571387E+03
                  12.6000             8.730528E-01             4.874805E+00             0.000000E+00             1.505680E+00             6.571387E+03
                  12.7800             8.843241E-01             4.872652E+00             0.000000E+00             1.505829E+00             6.571387E+03
                  12.9600             8.956210E-01             4.870521E+00             0.000000E+00             1.505969E+00             6.571387E+03
                  13.1400             9.069449E-01             4.868411E+00             0.000000E+00             1.506102E+00             6.571387E+03
                  13.3200             9.182966E-01             4.866324E+00             0.000000E+00             1.506227E+00             6.571387E+03
                  13.5000             9.296771E-01             4.864258E+00             0.000000E+00             1.506345E+00             6.571387E+03
                  13.6800             9.410875E-01             4.862213E+00             0.000000E+00             1.506456E+00             6.571387E+03
                  13.8600             9.525283E-01             4.860189E+00             0.000000E+00             1.506559E+00             6.571387E+03
                  14.0400             9.640004E-01             4.858186E+00             0.000000E+00             1.506656E+00             6.571387E+03
                  14.2200             9.755043E-01             4.856204E+00             0.000000E+00             1.506746E+00             6.571387E+03
                  14.4000             9.870406E-01             4.854242E+00             0.000000E+00             1.506830E+00             6.571387E+03
                  14.5800             9.986097E-01             4.852301E+00             0.000000E+00             1.506909E+00             6.571387E+03
                  14.7600             1.010212E+00             4.850380E+00             0.000000E+00             1.506981E+00             6.571387E+03
                  14.9400             1.021848E+00             4.848478E+00             0.000000E+00             1.507049E+00             6.571387E+03
                  15.1200             1.033517E+00             4.846596E+00             0.000000E+00             1.507111E+00             6.571387E+03
                  15.3000             1.045220E+00             4.844734E+00             0.000000E+00             1.507169E+00             6.571387E+03
                  15.4800             1.056957E+00             4.842891E+00             0.000000E+00             1.507223E+00             6.571387E+03
                  15.6600             1.068727E+00             4.841066E+00             0.000000E+00             1.507274E+00             6.571387E+03
                  15.8400             1.080531E+00             4.839261E+00             0.000000E+00             1.507322E+00             6.571387E+03
                  16.0200             1.092368E+00             4.837474E+00             0.000000E+00             1.507366E+00             6.571387E+03
                  16.2000             1.104237E+00             4.835705E+00             0.000000E+00             1.507409E+00             6.571387E+03
                  16.3800             1.116139E+00             4.833954E+00             0.000000E+00             1.507450E+00             6.571387E+03
                  16.5600             1.128073E+00             4.832221E+00             0.000000E+00             1.507490E+00             6.571387E+03
                  16.7400             1.140038E+00             4.830506E+00             0.000000E+00             1.507530E+00             6.571387E+03
                  16.9200             1.152033E+00             4.828807E+00             0.000000E+00             1.507569E+00             6.571387E+03
                  17.1000             1.164058E+00             4.827126E+00             0.000000E+00             1.507609E+00             6.571387E+03
                  17.2800             1.176112E+00             4.825461E+00             0.000000E+00             1.507650E+00             6.571387E+03
                  17.4600             1.188194E+00             4.823813E+00             0.000000E+00             1.507692E+00             6.571387E+03
                  17.6400             1.200303E+00             4.822181E+00             0.000000E+00             1.507737E+00             6.571387E+03
                  17.8200             1.212439E+00             4.820565E+00             0.000000E+00             1.507784E+00             6.571387E+03
                  18.0000             1.224599E+00             4.818964E+00             0.000000E+00             1.507835E+00             6.571387E+03
                  18.1800             1.236783E+00             4.817379E+00             0.000000E+00             1.507889E+00             6.571387E+03
                  18.3600             1.248990E+00             4.815810E+00             0.000000E+00             1.507948E+00             6.571387E+03
                  18.5400             1.261219E+00             4.814255E+00             0.000000E+00             1.508012E+00             6.571387E+03
                  18.7200             1.273468E+00             4.812714E+00             0.000000E+00             1.508081E+00             6.571387E+03
                  18.9000             1.285736E+00             4.811188E+00             0.000000E+00             1.508157E+00             6.571387E+03
                  19.0800             1.298022E+00             4.809677E+00             0.000000E+00             1.508239E+00             6.571387E+03
                  19.2600             1.310325E+00             4.808179E+00             0.000000E+00             1.508328E+00             6.571387E+03
                  19.4400             1.322643E+00             4.806694E+00             0.000000E+00             1.508425E+00             6.571387E+03
                  19.6200             1.334974E+00             4.805223E+00             0.000000E+00             1.508530E+00             6.571387E+03
                  19.8000             1.347319E+00             4.803765E+00             0.000000E+00             1.508644E+00             6.571387E+03
                  19.9800             1.359674E+00             4.802320E+00             0.000000E+00             1.508767E+00             6.571387E+03
                  20.1600             1.372039E+00             4.800888E+00             0.000000E+00             1.508899E+00             6.571387E+03
                  20.3400             1.384412E+00             4.799467E+00             0.000000E+00             1.509042E+00             6.571387E+03
                  20.5200             1.396792E+00             4.798059E+00             0.000000E+00             1.509195E+00             6.571387E+03
                  20.7000             1.409178E+00             4.796663E+00             0.000000E+00             1.509360E+00             6.571387E+03
                  20.8800             1.421569E+00             4.795278E+00             0.000000E+00             1.509535E+00             6.571387E+03
                  21.0600             1.433962E+00             4.793905E+00             0.000000E+00             1.509723E+00             6.571387E+03
                  21.2400             1.446356E+00             4.792542E+00             0.000000E+00             1.509923E+00             6.571387E+03
                  21.4200             1.458751E+00             4.791191E+00             0.000000E+00             1.510135E+00             6.571387E+03
                  21.6000             1.471145E+00             4.789850E+00             0.000000E+00             1.510360E+00             6.571387E+03
                  21.7800             1.483537E+00             4.788520E+00             0.000000E+00             1.510599E+00             6.571387E+03
                  21.9600             1.495925E+00             4.787200E+00             0.000000E+00             1.510851E+00             6.571387E+03
                  22.1400             1.508308E+00             4.785889E+00             0.000000E+00             1.511117E+00             6.571387E+03
                  22.3200             1.520686E+00             4.784589E+00             0.000000E+00             1.511397E+00             6.571387E+03
                  22.5000             1.533056E+00             4.783298E+00             0.000000E+00             1.511692E+00             6.571387E+03
                  22.6800             1.545418E+00             4.782017E+00             0.000000E+00             1.512001E+00             6.571388E+03
                  22.8600             1.557770E+00             4.780744E+00             0.000000E+00             1.512325E+00             6.571388E+03
                  23.0400             1.570112E+00             4.779481E+00             0.000000E+00             1.512665E+00             6.571388E+03
                  23.2200             1.582442E+00             4.778226E+00             0.000000E+00             1.513019E+00             6.571388E+03
                  23.4000             1.594760E+00             4.776980E+00             0.000000E+00             1.513389E+00             6.571388E+03
