                   Degree              F_vhoc_n[N]              F_vhoc_t[N]                 F_1_n[N]                 F_2_n[N]                  F_cx[N]                  F_cy[N]           F_resultant[N]
                   0.0000            -1.099881E+00            -4.853124E+01             3.773629E+00             5.136398E+00             1.362769E+00             1.993376E+01             1.998029E+01
                   0.1800            -1.024800E+00            -4.700304E+01             3.524940E+00             5.750354E+00             2.231988E+00             1.922178E+01             1.935094E+01
                   0.3600            -1.575860E+00            -4.704345E+01             3.019443E+00             5.742441E+00             2.736263E+00             1.925508E+01             1.944853E+01
                   0.5400            -2.127302E+00            -4.708772E+01             2.514064E+00             5.734779E+00             3.240785E+00             1.929064E+01             1.956096E+01
                   0.7200            -2.678547E+00            -4.713475E+01             2.009126E+00             5.727781E+00             3.745641E+00             1.932787E+01             1.968746E+01
                   0.9000            -3.229175E+00            -4.718391E+01             1.504904E+00             5.721676E+00             4.250781E+00             1.936639E+01             1.982741E+01
                   1.0800            -3.778988E+00            -4.723481E+01             1.001506E+00             5.716602E+00             4.756233E+00             1.940592E+01             1.998028E+01
                   1.2600            -4.327975E+00            -4.728725E+01             4.988965E-01             5.712635E+00             5.262107E+00             1.944628E+01             2.014566E+01
                   1.4400            -4.876009E+00            -4.734110E+01            -2.827637E-03             5.709808E+00             5.768336E+00             1.948731E+01             2.032311E+01
                   1.6200            -5.423069E+00            -4.739630E+01            -5.036586E-01             5.708140E+00             6.274929E+00             1.952888E+01             2.051224E+01
                   1.8000            -5.969109E+00            -4.745280E+01            -1.003560E+00             5.707633E+00             6.781855E+00             1.957089E+01             2.071263E+01
                   1.9800            -6.514172E+00            -4.751058E+01            -1.502577E+00             5.708289E+00             7.289156E+00             1.961323E+01             2.092392E+01
                   2.1600            -7.058207E+00            -4.756964E+01            -2.000661E+00             5.710099E+00             7.796778E+00             1.965581E+01             2.114570E+01
                   2.3400            -7.601239E+00            -4.762998E+01            -2.497836E+00             5.713055E+00             8.304736E+00             1.969854E+01             2.137758E+01
                   2.5200            -8.143253E+00            -4.769159E+01            -2.994085E+00             5.717146E+00             8.813006E+00             1.974134E+01             2.161919E+01
                   2.7000            -8.684249E+00            -4.775447E+01            -3.489408E+00             5.722360E+00             9.321574E+00             1.978412E+01             2.187014E+01
                   2.8800            -9.224240E+00            -4.781862E+01            -3.983814E+00             5.728685E+00             9.830440E+00             1.982680E+01             2.213006E+01
                   3.0600            -9.763216E+00            -4.788405E+01            -4.477290E+00             5.736104E+00             1.033958E+01             1.986930E+01             2.239857E+01
                   3.2400            -1.030119E+01            -4.795074E+01            -4.969851E+00             5.744599E+00             1.084899E+01             1.991154E+01             2.267531E+01
                   3.4200            -1.083819E+01            -4.801869E+01            -5.461507E+00             5.754145E+00             1.135866E+01             1.995345E+01             2.295995E+01
                   3.6000            -1.137422E+01            -4.808786E+01            -5.952273E+00             5.764701E+00             1.186856E+01             1.999496E+01             2.325212E+01
                   3.7800            -1.190934E+01            -4.815815E+01            -6.442199E+00             5.776180E+00             1.237867E+01             2.003600E+01             2.355149E+01
                   3.9600            -1.244379E+01            -4.822920E+01            -6.931487E+00             5.788291E+00             1.288889E+01             2.007654E+01             2.385772E+01
                   4.1400            -1.297793E+01            -4.830036E+01            -7.420479E+00             5.800525E+00             1.339904E+01             2.011663E+01             2.417050E+01
                   4.3200            -1.351189E+01            -4.837145E+01            -7.909269E+00             5.812740E+00             1.390908E+01             2.015628E+01             2.448955E+01
                   4.5000            -1.404565E+01            -4.844248E+01            -8.397853E+00             5.824926E+00             1.441899E+01             2.019549E+01             2.481462E+01
                   4.6800            -1.457921E+01            -4.851347E+01            -8.886229E+00             5.837076E+00             1.492877E+01             2.023429E+01             2.514547E+01
                   4.8600            -1.511256E+01            -4.858443E+01            -9.374393E+00             5.849181E+00             1.543839E+01             2.027267E+01             2.548186E+01
                   5.0400            -1.564571E+01            -4.865537E+01            -9.862343E+00             5.861235E+00             1.594786E+01             2.031064E+01             2.582356E+01
                   5.2200            -1.617864E+01            -4.872630E+01            -1.035007E+01             5.873229E+00             1.645715E+01             2.034822E+01             2.617036E+01
                   5.4000            -1.671136E+01            -4.879724E+01            -1.083758E+01             5.885155E+00             1.696626E+01             2.038542E+01             2.652205E+01
                   5.5800            -1.724386E+01            -4.886818E+01            -1.132486E+01             5.897007E+00             1.747517E+01             2.042225E+01             2.687842E+01
                   5.7600            -1.777613E+01            -4.893916E+01            -1.181191E+01             5.908776E+00             1.798387E+01             2.045871E+01             2.723928E+01
                   5.9400            -1.830818E+01            -4.901018E+01            -1.229873E+01             5.920454E+00             1.849235E+01             2.049484E+01             2.760445E+01
                   6.1200            -1.884000E+01            -4.908124E+01            -1.278531E+01             5.932034E+00             1.900060E+01             2.053063E+01             2.797373E+01
                   6.3000            -1.937158E+01            -4.915237E+01            -1.327165E+01             5.943508E+00             1.950861E+01             2.056610E+01             2.834697E+01
                   6.4800            -1.990293E+01            -4.922357E+01            -1.375774E+01             5.954868E+00             2.001637E+01             2.060127E+01             2.872399E+01
                   6.6600            -2.043403E+01            -4.929487E+01            -1.424359E+01             5.966105E+00             2.052385E+01             2.063616E+01             2.910464E+01
                   6.8400            -2.096489E+01            -4.936626E+01            -1.472919E+01             5.977213E+00             2.103106E+01             2.067079E+01             2.948876E+01
                   7.0200            -2.149551E+01            -4.943776E+01            -1.521454E+01             5.988184E+00             2.153798E+01             2.070516E+01             2.987621E+01
                   7.2000            -2.202587E+01            -4.950939E+01            -1.569963E+01             5.999008E+00             2.204459E+01             2.073931E+01             3.026686E+01
                   7.3800            -2.255598E+01            -4.958115E+01            -1.618445E+01             6.009679E+00             2.255088E+01             2.077324E+01             3.066056E+01
                   7.5600            -2.308584E+01            -4.965306E+01            -1.666902E+01             6.020189E+00             2.305685E+01             2.080698E+01             3.105719E+01
                   7.7400            -2.361543E+01            -4.972513E+01            -1.715332E+01             6.030529E+00             2.356248E+01             2.084055E+01             3.145662E+01
                   7.9200            -2.414476E+01            -4.979737E+01            -1.763735E+01             6.040692E+00             2.406775E+01             2.087398E+01             3.185875E+01
                   8.1000            -2.467383E+01            -4.986980E+01            -1.812110E+01             6.050670E+00             2.457266E+01             2.090728E+01             3.226344E+01
                   8.2800            -2.520263E+01            -4.994242E+01            -1.860458E+01             6.060455E+00             2.507719E+01             2.094047E+01             3.267061E+01
                   8.4600            -2.573115E+01            -5.001525E+01            -1.908778E+01             6.070040E+00             2.558132E+01             2.097358E+01             3.308013E+01
                   8.6400            -2.625941E+01            -5.008830E+01            -1.957070E+01             6.079416E+00             2.608505E+01             2.100664E+01             3.349192E+01
                   8.8200            -2.678738E+01            -5.016158E+01            -2.005333E+01             6.088576E+00             2.658836E+01             2.103966E+01             3.390587E+01
                   9.0000            -2.731507E+01            -5.023509E+01            -2.053567E+01             6.097513E+00             2.709124E+01             2.107267E+01             3.432190E+01
                   9.1800            -2.784248E+01            -5.030886E+01            -2.101772E+01             6.106218E+00             2.759368E+01             2.110570E+01             3.473992E+01
                   9.3600            -2.836960E+01            -5.038289E+01            -2.149948E+01             6.114685E+00             2.809566E+01             2.113876E+01             3.515983E+01
                   9.5400            -2.889643E+01            -5.045720E+01            -2.198093E+01             6.122906E+00             2.859717E+01             2.117190E+01             3.558156E+01
                   9.7200            -2.942297E+01            -5.053178E+01            -2.246208E+01             6.130875E+00             2.909819E+01             2.120512E+01             3.600503E+01
                   9.9000            -2.994920E+01            -5.060666E+01            -2.294292E+01             6.138583E+00             2.959872E+01             2.123846E+01             3.643016E+01
                  10.0800            -3.047514E+01            -5.068183E+01            -2.342345E+01             6.146024E+00             3.009873E+01             2.127195E+01             3.685688E+01
                  10.2600            -3.100076E+01            -5.075732E+01            -2.390367E+01             6.153192E+00             3.059822E+01             2.130560E+01             3.728511E+01
                  10.4400            -3.152608E+01            -5.083312E+01            -2.438357E+01             6.160079E+00             3.109717E+01             2.133944E+01             3.771480E+01
                  10.6200            -3.205108E+01            -5.090925E+01            -2.486315E+01             6.166680E+00             3.159557E+01             2.137350E+01             3.814586E+01
                  10.8000            -3.257576E+01            -5.098571E+01            -2.534240E+01             6.172988E+00             3.209340E+01             2.140781E+01             3.857824E+01
                  10.9800            -3.310012E+01            -5.106250E+01            -2.582132E+01             6.178997E+00             3.259065E+01             2.144238E+01             3.901187E+01
                  11.1600            -3.362414E+01            -5.113964E+01            -2.629991E+01             6.184702E+00             3.308731E+01             2.147725E+01             3.944670E+01
                  11.3400            -3.414783E+01            -5.121713E+01            -2.677816E+01             6.190096E+00             3.358336E+01             2.151243E+01             3.988266E+01
                  11.5200            -3.467118E+01            -5.129498E+01            -2.725606E+01             6.195175E+00             3.407879E+01             2.154795E+01             4.031969E+01
                  11.7000            -3.519418E+01            -5.137318E+01            -2.773362E+01             6.199934E+00             3.457358E+01             2.158383E+01             4.075775E+01
                  11.8800            -3.571683E+01            -5.145174E+01            -2.821082E+01             6.204367E+00             3.506772E+01             2.162009E+01             4.119677E+01
                  12.0600            -3.623911E+01            -5.153067E+01            -2.868766E+01             6.208470E+00             3.556120E+01             2.165676E+01             4.163670E+01
                  12.2400            -3.676103E+01            -5.160997E+01            -2.916414E+01             6.212239E+00             3.605401E+01             2.169386E+01             4.207749E+01
                  12.4200            -3.728257E+01            -5.168963E+01            -2.964025E+01             6.215671E+00             3.654612E+01             2.173139E+01             4.251908E+01
                  12.6000            -3.780373E+01            -5.176966E+01            -3.011599E+01             6.218760E+00             3.703753E+01             2.176939E+01             4.296144E+01
                  12.7800            -3.832449E+01            -5.185006E+01            -3.059134E+01             6.221505E+00             3.752822E+01             2.180787E+01             4.340450E+01
                  12.9600            -3.884485E+01            -5.193082E+01            -3.106631E+01             6.223902E+00             3.801819E+01             2.184685E+01             4.384823E+01
                  13.1400            -3.936481E+01            -5.201195E+01            -3.154089E+01             6.225948E+00             3.850740E+01             2.188633E+01             4.429257E+01
                  13.3200            -3.988434E+01            -5.209344E+01            -3.201507E+01             6.227641E+00             3.899587E+01             2.192634E+01             4.473748E+01
                  13.5000            -4.040344E+01            -5.217529E+01            -3.248884E+01             6.228979E+00             3.948356E+01             2.196688E+01             4.518291E+01
                  13.6800            -4.092210E+01            -5.225750E+01            -3.296220E+01             6.229959E+00             3.997047E+01             2.200796E+01             4.562881E+01
                  13.8600            -4.144031E+01            -5.234005E+01            -3.343513E+01             6.230582E+00             4.045658E+01             2.204961E+01             4.607516E+01
                  14.0400            -4.195806E+01            -5.242295E+01            -3.390765E+01             6.230845E+00             4.094189E+01             2.209181E+01             4.652189E+01
                  14.2200            -4.247534E+01            -5.250619E+01            -3.437972E+01             6.230748E+00             4.142637E+01             2.213458E+01             4.696897E+01
                  14.4000            -4.299212E+01            -5.258976E+01            -3.485136E+01             6.230291E+00             4.191003E+01             2.217793E+01             4.741636E+01
                  14.5800            -4.350841E+01            -5.267364E+01            -3.532255E+01             6.229472E+00             4.239284E+01             2.222185E+01             4.786401E+01
                  14.7600            -4.402419E+01            -5.275785E+01            -3.579328E+01             6.228294E+00             4.287479E+01             2.226635E+01             4.831188E+01
                  14.9400            -4.453944E+01            -5.284235E+01            -3.626354E+01             6.226755E+00             4.335588E+01             2.231143E+01             4.875994E+01
                  15.1200            -4.505415E+01            -5.292715E+01            -3.673333E+01             6.224856E+00             4.383609E+01             2.235708E+01             4.920815E+01
                  15.3000            -4.556831E+01            -5.301223E+01            -3.720264E+01             6.222600E+00             4.431541E+01             2.240331E+01             4.965645E+01
                  15.4800            -4.608190E+01            -5.309759E+01            -3.767145E+01             6.219986E+00             4.479382E+01             2.245011E+01             5.010483E+01
                  15.6600            -4.659491E+01            -5.318320E+01            -3.813977E+01             6.217018E+00             4.527133E+01             2.249746E+01             5.055323E+01
                  15.8400            -4.710733E+01            -5.326907E+01            -3.860758E+01             6.213695E+00             4.574792E+01             2.254537E+01             5.100163E+01
                  16.0200            -4.761913E+01            -5.335516E+01            -3.907486E+01             6.210022E+00             4.622358E+01             2.259383E+01             5.144998E+01
                  16.2000            -4.813030E+01            -5.344148E+01            -3.954163E+01             6.205999E+00             4.669829E+01             2.264281E+01             5.189824E+01
                  16.3800            -4.864083E+01            -5.352801E+01            -4.000785E+01             6.201630E+00             4.717206E+01             2.269232E+01             5.234639E+01
                  16.5600            -4.915070E+01            -5.361473E+01            -4.047353E+01             6.196917E+00             4.764487E+01             2.274233E+01             5.279438E+01
                  16.7400            -4.965989E+01            -5.370162E+01            -4.093865E+01             6.191863E+00             4.811671E+01             2.279284E+01             5.324219E+01
                  16.9200            -5.016839E+01            -5.378869E+01            -4.140321E+01             6.186472E+00             4.858757E+01             2.284382E+01             5.368978E+01
                  17.1000            -5.067618E+01            -5.387590E+01            -4.186719E+01             6.180745E+00             4.905745E+01             2.289525E+01             5.413710E+01
                  17.2800            -5.118324E+01            -5.396324E+01            -4.233059E+01             6.174688E+00             4.952634E+01             2.294713E+01             5.458414E+01
                  17.4600            -5.168956E+01            -5.405070E+01            -4.279339E+01             6.168303E+00             4.999422E+01             2.299942E+01             5.503086E+01
