                   Degree              F_vhoc_n[N]              F_vhoc_t[N]                 F_1_n[N]                 F_2_n[N]                  F_cx[N]                  F_cy[N]           F_resultant[N]
                   0.0000            -1.103783E+00            -4.857464E+01             3.765532E+00             5.174084E+00             1.408552E+00             1.994973E+01             1.999939E+01
                   0.1800            -6.619848E-01            -4.656857E+01             3.774477E+00             5.954902E+00             2.186933E+00             1.899022E+01             1.911573E+01
                   0.3600            -1.110303E+00            -4.658394E+01             3.368389E+00             5.941425E+00             2.586177E+00             1.899776E+01             1.917298E+01
                   0.5400            -1.560178E+00            -4.660649E+01             2.961867E+00             5.927395E+00             2.985421E+00             1.900938E+01             1.924238E+01
                   0.7200            -2.010195E+00            -4.663346E+01             2.555683E+00             5.913871E+00             3.384954E+00             1.902370E+01             1.932250E+01
                   0.9000            -2.459559E+00            -4.666341E+01             2.150302E+00             5.901388E+00             3.784838E+00             1.903992E+01             1.941246E+01
                   1.0800            -2.907909E+00            -4.669564E+01             1.745920E+00             5.890212E+00             4.185142E+00             1.905757E+01             1.951169E+01
                   1.2600            -3.355143E+00            -4.672977E+01             1.342557E+00             5.880473E+00             4.585973E+00             1.907636E+01             1.961985E+01
                   1.4400            -3.801129E+00            -4.676566E+01             9.403080E-01             5.872223E+00             4.987285E+00             1.909608E+01             1.973660E+01
                   1.6200            -4.245838E+00            -4.680320E+01             5.391852E-01             5.865484E+00             5.389088E+00             1.911657E+01             1.986166E+01
                   1.8000            -4.689234E+00            -4.684237E+01             1.392176E-01             5.860260E+00             5.791356E+00             1.913770E+01             1.999478E+01
                   1.9800            -5.131355E+00            -4.688316E+01            -2.596321E-01             5.856549E+00             6.194123E+00             1.915934E+01             2.013573E+01
                   2.1600            -5.572167E+00            -4.692556E+01            -6.573280E-01             5.854341E+00             6.597346E+00             1.918138E+01             2.028424E+01
                   2.3400            -6.011693E+00            -4.696958E+01            -1.053890E+00             5.853626E+00             7.001036E+00             1.920372E+01             2.044009E+01
                   2.5200            -6.449926E+00            -4.701523E+01            -1.449308E+00             5.854396E+00             7.405175E+00             1.922623E+01             2.060302E+01
                   2.7000            -6.886869E+00            -4.706251E+01            -1.843580E+00             5.856638E+00             7.809753E+00             1.924881E+01             2.077280E+01
                   2.8800            -7.322537E+00            -4.711145E+01            -2.236716E+00             5.860342E+00             8.214772E+00             1.927137E+01             2.094918E+01
                   3.0600            -7.756922E+00            -4.716204E+01            -2.628703E+00             5.865497E+00             8.620213E+00             1.929380E+01             2.113194E+01
                   3.2400            -8.190038E+00            -4.721430E+01            -3.019550E+00             5.872092E+00             9.026076E+00             1.931599E+01             2.132083E+01
                   3.4200            -8.621895E+00            -4.726823E+01            -3.409263E+00             5.880112E+00             9.432359E+00             1.933786E+01             2.151562E+01
                   3.6000            -9.052514E+00            -4.732381E+01            -3.797854E+00             5.889523E+00             9.839044E+00             1.935929E+01             2.171610E+01
                   3.7800            -9.482494E+00            -4.738005E+01            -4.185859E+00             5.899550E+00             1.024588E+01             1.938028E+01             2.192198E+01
                   3.9600            -9.912300E+00            -4.743617E+01            -4.573693E+00             5.909600E+00             1.065269E+01             1.940086E+01             2.213308E+01
                   4.1400            -1.034193E+01            -4.749218E+01            -4.961348E+00             5.919662E+00             1.105945E+01             1.942105E+01             2.234924E+01
                   4.3200            -1.077138E+01            -4.754812E+01            -5.348831E+00             5.929728E+00             1.146616E+01             1.944084E+01             2.257032E+01
                   4.5000            -1.120065E+01            -4.760398E+01            -5.736135E+00             5.939789E+00             1.187280E+01             1.946026E+01             2.279616E+01
                   4.6800            -1.162975E+01            -4.765979E+01            -6.123261E+00             5.949837E+00             1.227936E+01             1.947930E+01             2.302664E+01
                   4.8600            -1.205867E+01            -4.771556E+01            -6.510208E+00             5.959864E+00             1.268584E+01             1.949799E+01             2.326160E+01
                   5.0400            -1.248741E+01            -4.777130E+01            -6.896976E+00             5.969861E+00             1.309223E+01             1.951634E+01             2.350093E+01
                   5.2200            -1.291597E+01            -4.782704E+01            -7.283560E+00             5.979819E+00             1.349851E+01             1.953435E+01             2.374448E+01
                   5.4000            -1.334436E+01            -4.788279E+01            -7.669963E+00             5.989730E+00             1.390467E+01             1.955204E+01             2.399213E+01
                   5.5800            -1.377257E+01            -4.793856E+01            -8.056180E+00             5.999586E+00             1.431071E+01             1.956944E+01             2.424375E+01
                   5.7600            -1.420061E+01            -4.799437E+01            -8.442215E+00             6.009377E+00             1.471662E+01             1.958655E+01             2.449922E+01
                   5.9400            -1.462847E+01            -4.805023E+01            -8.828062E+00             6.019095E+00             1.512238E+01             1.960339E+01             2.475842E+01
                   6.1200            -1.505615E+01            -4.810617E+01            -9.213723E+00             6.028732E+00             1.552799E+01             1.961999E+01             2.502124E+01
                   6.3000            -1.548367E+01            -4.816220E+01            -9.599197E+00             6.038277E+00             1.593343E+01             1.963635E+01             2.528756E+01
                   6.4800            -1.591100E+01            -4.821833E+01            -9.984481E+00             6.047723E+00             1.633870E+01             1.965251E+01             2.555727E+01
                   6.6600            -1.633817E+01            -4.827458E+01            -1.036958E+01             6.057061E+00             1.674378E+01             1.966848E+01             2.583028E+01
                   6.8400            -1.676516E+01            -4.833096E+01            -1.075448E+01             6.066282E+00             1.714866E+01             1.968429E+01             2.610647E+01
                   7.0200            -1.719199E+01            -4.838750E+01            -1.113920E+01             6.075376E+00             1.755333E+01             1.969996E+01             2.638575E+01
                   7.2000            -1.761864E+01            -4.844421E+01            -1.152372E+01             6.084336E+00             1.795779E+01             1.971551E+01             2.666802E+01
                   7.3800            -1.804513E+01            -4.850110E+01            -1.190805E+01             6.093152E+00             1.836201E+01             1.973097E+01             2.695320E+01
                   7.5600            -1.847145E+01            -4.855820E+01            -1.229219E+01             6.101814E+00             1.876600E+01             1.974637E+01             2.724118E+01
                   7.7400            -1.889760E+01            -4.861551E+01            -1.267613E+01             6.110316E+00             1.916973E+01             1.976173E+01             2.753188E+01
                   7.9200            -1.932359E+01            -4.867306E+01            -1.305988E+01             6.118646E+00             1.957320E+01             1.977708E+01             2.782522E+01
                   8.1000            -1.974941E+01            -4.873085E+01            -1.344344E+01             6.126797E+00             1.997639E+01             1.979245E+01             2.812112E+01
                   8.2800            -2.017508E+01            -4.878891E+01            -1.382679E+01             6.134760E+00             2.037929E+01             1.980787E+01             2.841949E+01
                   8.4600            -2.060058E+01            -4.884725E+01            -1.420995E+01             6.142526E+00             2.078190E+01             1.982336E+01             2.872026E+01
                   8.6400            -2.102592E+01            -4.890588E+01            -1.459292E+01             6.150087E+00             2.118420E+01             1.983897E+01             2.902335E+01
                   8.8200            -2.145110E+01            -4.896482E+01            -1.497568E+01             6.157433E+00             2.158617E+01             1.985472E+01             2.932870E+01
                   9.0000            -2.187613E+01            -4.902409E+01            -1.535825E+01             6.164557E+00             2.198781E+01             1.987064E+01             2.963622E+01
                   9.1800            -2.230099E+01            -4.908370E+01            -1.574061E+01             6.171449E+00             2.238910E+01             1.988676E+01             2.994587E+01
                   9.3600            -2.272570E+01            -4.914365E+01            -1.612278E+01             6.178102E+00             2.279003E+01             1.990312E+01             3.025755E+01
                   9.5400            -2.315026E+01            -4.920398E+01            -1.650474E+01             6.184508E+00             2.319059E+01             1.991975E+01             3.057122E+01
                   9.7200            -2.357466E+01            -4.926468E+01            -1.688650E+01             6.190658E+00             2.359076E+01             1.993668E+01             3.088681E+01
                   9.9000            -2.399890E+01            -4.932578E+01            -1.726805E+01             6.196545E+00             2.399054E+01             1.995395E+01             3.120426E+01
                  10.0800            -2.442299E+01            -4.938728E+01            -1.764940E+01             6.202162E+00             2.438990E+01             1.997158E+01             3.152351E+01
                  10.2600            -2.484692E+01            -4.944919E+01            -1.803054E+01             6.207500E+00             2.478885E+01             1.998962E+01             3.184449E+01
                  10.4400            -2.527069E+01            -4.951153E+01            -1.841147E+01             6.212552E+00             2.518735E+01             2.000809E+01             3.216717E+01
                  10.6200            -2.569431E+01            -4.957431E+01            -1.879219E+01             6.217313E+00             2.558541E+01             2.002703E+01             3.249146E+01
                  10.8000            -2.611777E+01            -4.963753E+01            -1.917270E+01             6.221774E+00             2.598301E+01             2.004647E+01             3.281734E+01
                  10.9800            -2.654106E+01            -4.970120E+01            -1.955299E+01             6.225930E+00             2.638013E+01             2.006644E+01             3.314473E+01
                  11.1600            -2.696420E+01            -4.976534E+01            -1.993306E+01             6.229774E+00             2.677676E+01             2.008697E+01             3.347359E+01
                  11.3400            -2.738717E+01            -4.982994E+01            -2.031291E+01             6.233301E+00             2.717289E+01             2.010809E+01             3.380386E+01
                  11.5200            -2.780997E+01            -4.989502E+01            -2.069254E+01             6.236505E+00             2.756850E+01             2.012983E+01             3.413550E+01
                  11.7000            -2.823260E+01            -4.996058E+01            -2.107195E+01             6.239381E+00             2.796359E+01             2.015222E+01             3.446846E+01
                  11.8800            -2.865505E+01            -5.002663E+01            -2.145112E+01             6.241924E+00             2.835814E+01             2.017530E+01             3.480268E+01
                  12.0600            -2.907732E+01            -5.009316E+01            -2.183006E+01             6.244129E+00             2.875213E+01             2.019907E+01             3.513812E+01
                  12.2400            -2.949942E+01            -5.016018E+01            -2.220877E+01             6.245993E+00             2.914555E+01             2.022358E+01             3.547473E+01
                  12.4200            -2.992132E+01            -5.022770E+01            -2.258724E+01             6.247512E+00             2.953840E+01             2.024884E+01             3.581246E+01
                  12.6000            -3.034302E+01            -5.029571E+01            -2.296546E+01             6.248683E+00             2.993065E+01             2.027488E+01             3.615127E+01
                  12.7800            -3.076453E+01            -5.036421E+01            -2.334343E+01             6.249502E+00             3.032230E+01             2.030172E+01             3.649111E+01
                  12.9600            -3.118583E+01            -5.043320E+01            -2.372115E+01             6.249967E+00             3.071332E+01             2.032937E+01             3.683194E+01
                  13.1400            -3.160691E+01            -5.050268E+01            -2.409862E+01             6.250075E+00             3.110372E+01             2.035786E+01             3.717370E+01
                  13.3200            -3.202777E+01            -5.057265E+01            -2.447582E+01             6.249827E+00             3.149348E+01             2.038721E+01             3.751636E+01
                  13.5000            -3.244839E+01            -5.064309E+01            -2.485275E+01             6.249219E+00             3.188257E+01             2.041742E+01             3.785987E+01
                  13.6800            -3.286878E+01            -5.071401E+01            -2.522941E+01             6.248251E+00             3.227100E+01             2.044851E+01             3.820418E+01
                  13.8600            -3.328891E+01            -5.078540E+01            -2.560578E+01             6.246923E+00             3.265876E+01             2.048049E+01             3.854925E+01
                  14.0400            -3.370879E+01            -5.085725E+01            -2.598187E+01             6.245235E+00             3.304582E+01             2.051337E+01             3.889504E+01
                  14.2200            -3.412839E+01            -5.092955E+01            -2.635767E+01             6.243187E+00             3.343218E+01             2.054715E+01             3.924151E+01
                  14.4000            -3.454770E+01            -5.100229E+01            -2.673317E+01             6.240780E+00             3.381782E+01             2.058185E+01             3.958860E+01
                  14.5800            -3.496673E+01            -5.107546E+01            -2.710836E+01             6.238015E+00             3.420274E+01             2.061745E+01             3.993629E+01
                  14.7600            -3.538544E+01            -5.114905E+01            -2.748323E+01             6.234894E+00             3.458693E+01             2.065397E+01             4.028452E+01
                  14.9400            -3.580383E+01            -5.122305E+01            -2.785779E+01             6.231419E+00             3.497038E+01             2.069141E+01             4.063326E+01
                  15.1200            -3.622189E+01            -5.129745E+01            -2.823201E+01             6.227592E+00             3.535306E+01             2.072975E+01             4.098245E+01
                  15.3000            -3.663960E+01            -5.137222E+01            -2.860589E+01             6.223416E+00             3.573499E+01             2.076899E+01             4.133207E+01
                  15.4800            -3.705695E+01            -5.144736E+01            -2.897943E+01             6.218894E+00             3.611614E+01             2.080912E+01             4.168207E+01
                  15.6600            -3.747392E+01            -5.152284E+01            -2.935262E+01             6.214030E+00             3.649651E+01             2.085014E+01             4.203241E+01
                  15.8400            -3.789050E+01            -5.159866E+01            -2.972544E+01             6.208827E+00             3.687608E+01             2.089203E+01             4.238304E+01
                  16.0200            -3.830667E+01            -5.167480E+01            -3.009788E+01             6.203290E+00             3.725486E+01             2.093477E+01             4.273394E+01
                  16.2000            -3.872241E+01            -5.175123E+01            -3.046995E+01             6.197422E+00             3.763283E+01             2.097836E+01             4.308505E+01
                  16.3800            -3.913772E+01            -5.182795E+01            -3.084163E+01             6.191228E+00             3.800998E+01             2.102277E+01             4.343634E+01
                  16.5600            -3.955256E+01            -5.190493E+01            -3.121290E+01             6.184714E+00             3.838631E+01             2.106799E+01             4.378778E+01
                  16.7400            -3.996693E+01            -5.198214E+01            -3.158377E+01             6.177884E+00             3.876182E+01             2.111399E+01             4.413931E+01
                  16.9200            -4.038081E+01            -5.205959E+01            -3.195421E+01             6.170743E+00             3.913648E+01             2.116075E+01             4.449091E+01
                  17.1000            -4.079418E+01            -5.213723E+01            -3.232423E+01             6.163297E+00             3.951030E+01             2.120824E+01             4.484254E+01
                  17.2800            -4.120702E+01            -5.221506E+01            -3.269381E+01             6.155552E+00             3.988328E+01             2.125644E+01             4.519416E+01
                  17.4600            -4.161932E+01            -5.229306E+01            -3.306294E+01             6.147512E+00             4.025539E+01             2.130533E+01             4.554573E+01
