                   Degree              F_vhoc_n[N]              F_vhoc_t[N]                 F_1_n[N]                 F_2_n[N]                  F_cx[N]                  F_cy[N]           F_resultant[N]
                   0.0000            -1.047491E+00            -4.870118E+01             3.817916E+00             5.248691E+00             1.430775E+00             1.999278E+01             2.004391E+01
                   0.1800            -6.078246E-01            -4.668829E+01             3.824746E+00             6.026498E+00             2.208276E+00             1.902907E+01             1.915678E+01
                   0.3600            -1.059146E+00            -4.669874E+01             3.416089E+00             6.009363E+00             2.606449E+00             1.903352E+01             1.921115E+01
                   0.5400            -1.511995E+00            -4.671645E+01             3.007022E+00             5.991705E+00             3.004635E+00             1.904225E+01             1.927784E+01
                   0.7200            -1.964954E+00            -4.673862E+01             2.598315E+00             5.974588E+00             3.403120E+00             1.905387E+01             1.935539E+01
                   0.9000            -2.417227E+00            -4.676383E+01             2.190435E+00             5.958546E+00             3.801969E+00             1.906758E+01             1.944293E+01
                   1.0800            -2.868453E+00            -4.679135E+01             1.783577E+00             5.943844E+00             4.201247E+00             1.908291E+01             1.953990E+01
                   1.2600            -3.318531E+00            -4.682083E+01             1.377761E+00             5.930611E+00             4.601062E+00             1.909956E+01             1.964594E+01
                   1.4400            -3.767330E+00            -4.685209E+01             9.730820E-01             5.918899E+00             5.001366E+00             1.911733E+01             1.976072E+01
                   1.6200            -4.214821E+00            -4.688506E+01             5.695495E-01             5.908727E+00             5.402168E+00             1.913605E+01             1.988396E+01
                   1.8000            -4.660971E+00            -4.691969E+01             1.671924E-01             5.900100E+00             5.803442E+00             1.915559E+01             2.001540E+01
                   1.9800            -5.105818E+00            -4.695598E+01            -2.340274E-01             5.893012E+00             6.205220E+00             1.917581E+01             2.015481E+01
                   2.1600            -5.549327E+00            -4.699391E+01            -6.340748E-01             5.887455E+00             6.607458E+00             1.919660E+01             2.030192E+01
                   2.3400            -5.991525E+00            -4.703350E+01            -1.032971E+00             5.883417E+00             7.010167E+00             1.921786E+01             2.045650E+01
                   2.5200            -6.432404E+00            -4.707475E+01            -1.430705E+00             5.880887E+00             7.413327E+00             1.923946E+01             2.061830E+01
                   2.7000            -6.871969E+00            -4.711767E+01            -1.827277E+00             5.879853E+00             7.816928E+00             1.926130E+01             2.078707E+01
                   2.8800            -7.310233E+00            -4.716227E+01            -2.222696E+00             5.880304E+00             8.220970E+00             1.928328E+01             2.096257E+01
                   3.0600            -7.747191E+00            -4.720856E+01            -2.616952E+00             5.882229E+00             8.625434E+00             1.930529E+01             2.114456E+01
                   3.2400            -8.182856E+00            -4.725655E+01            -3.010051E+00             5.885617E+00             9.030321E+00             1.932723E+01             2.133281E+01
                   3.4200            -8.617235E+00            -4.730625E+01            -3.401998E+00             5.890456E+00             9.435627E+00             1.934900E+01             2.152707E+01
                   3.6000            -9.050331E+00            -4.735767E+01            -3.792789E+00             5.896735E+00             9.841342E+00             1.937049E+01             2.172713E+01
                   3.7800            -9.482151E+00            -4.741081E+01            -4.182426E+00             5.904437E+00             1.024746E+01             1.939161E+01             2.193274E+01
                   3.9600            -9.912721E+00            -4.746567E+01            -4.570928E+00             5.913535E+00             1.065397E+01             1.941227E+01             2.214370E+01
                   4.1400            -1.034239E+01            -4.752164E+01            -4.958608E+00             5.923563E+00             1.106073E+01             1.943243E+01             2.235976E+01
                   4.3200            -1.077187E+01            -4.757757E+01            -5.346090E+00             5.933630E+00             1.146744E+01             1.945220E+01             2.258075E+01
                   4.5000            -1.120116E+01            -4.763343E+01            -5.733393E+00             5.943691E+00             1.187408E+01             1.947158E+01             2.280650E+01
                   4.6800            -1.163027E+01            -4.768924E+01            -6.120519E+00             5.953741E+00             1.228065E+01             1.949060E+01             2.303688E+01
                   4.8600            -1.205921E+01            -4.774500E+01            -6.507465E+00             5.963768E+00             1.268714E+01             1.950926E+01             2.327176E+01
                   5.0400            -1.248797E+01            -4.780075E+01            -6.894232E+00             5.973766E+00             1.309353E+01             1.952758E+01             2.351099E+01
                   5.2200            -1.291656E+01            -4.785649E+01            -7.280815E+00             5.983726E+00             1.349982E+01             1.954556E+01             2.375445E+01
                   5.4000            -1.334496E+01            -4.791223E+01            -7.667217E+00             5.993638E+00             1.390599E+01             1.956323E+01             2.400201E+01
                   5.5800            -1.377319E+01            -4.796800E+01            -8.053433E+00             6.003495E+00             1.431204E+01             1.958060E+01             2.425354E+01
                   5.7600            -1.420125E+01            -4.802381E+01            -8.439467E+00             6.013287E+00             1.471795E+01             1.959768E+01             2.450892E+01
                   5.9400            -1.462913E+01            -4.807967E+01            -8.825313E+00             6.023007E+00             1.512372E+01             1.961449E+01             2.476803E+01
                   6.1200            -1.505683E+01            -4.813561E+01            -9.210973E+00             6.032644E+00             1.552933E+01             1.963106E+01             2.503076E+01
                   6.3000            -1.548436E+01            -4.819164E+01            -9.596447E+00             6.042191E+00             1.593478E+01             1.964740E+01             2.529699E+01
                   6.4800            -1.591172E+01            -4.824776E+01            -9.981730E+00             6.051638E+00             1.634005E+01             1.966353E+01             2.556662E+01
                   6.6600            -1.633890E+01            -4.830401E+01            -1.036683E+01             6.060977E+00             1.674514E+01             1.967947E+01             2.583953E+01
                   6.8400            -1.676591E+01            -4.836040E+01            -1.075173E+01             6.070199E+00             1.715003E+01             1.969525E+01             2.611564E+01
                   7.0200            -1.719276E+01            -4.841694E+01            -1.113644E+01             6.079294E+00             1.755471E+01             1.971089E+01             2.639483E+01
                   7.2000            -1.761943E+01            -4.847365E+01            -1.152096E+01             6.088255E+00             1.795917E+01             1.972642E+01             2.667702E+01
                   7.3800            -1.804593E+01            -4.853054E+01            -1.190529E+01             6.097071E+00             1.836340E+01             1.974185E+01             2.696211E+01
                   7.5600            -1.847227E+01            -4.858764E+01            -1.228943E+01             6.105735E+00             1.876740E+01             1.975722E+01             2.725001E+01
                   7.7400            -1.889845E+01            -4.864495E+01            -1.267337E+01             6.114237E+00             1.917113E+01             1.977256E+01             2.754063E+01
                   7.9200            -1.932445E+01            -4.870249E+01            -1.305712E+01             6.122568E+00             1.957461E+01             1.978788E+01             2.783389E+01
                   8.1000            -1.975030E+01            -4.876029E+01            -1.344068E+01             6.130720E+00             1.997781E+01             1.980322E+01             2.812971E+01
                   8.2800            -2.017598E+01            -4.881835E+01            -1.382403E+01             6.138683E+00             2.038072E+01             1.981862E+01             2.842800E+01
                   8.4600            -2.060150E+01            -4.887669E+01            -1.420719E+01             6.146450E+00             2.078334E+01             1.983409E+01             2.872870E+01
                   8.6400            -2.102686E+01            -4.893532E+01            -1.459016E+01             6.154011E+00             2.118564E+01             1.984967E+01             2.903172E+01
                   8.8200            -2.145207E+01            -4.899427E+01            -1.497292E+01             6.161357E+00             2.158762E+01             1.986539E+01             2.933699E+01
                   9.0000            -2.187711E+01            -4.905354E+01            -1.535549E+01             6.168481E+00             2.198926E+01             1.988128E+01             2.964445E+01
                   9.1800            -2.230200E+01            -4.911314E+01            -1.573785E+01             6.175374E+00             2.239056E+01             1.989738E+01             2.995402E+01
                   9.3600            -2.272673E+01            -4.917311E+01            -1.612002E+01             6.182027E+00             2.279150E+01             1.991372E+01             3.026564E+01
                   9.5400            -2.315131E+01            -4.923343E+01            -1.650198E+01             6.188432E+00             2.319207E+01             1.993033E+01             3.057924E+01
                   9.7200            -2.357572E+01            -4.929414E+01            -1.688374E+01             6.194582E+00             2.359225E+01             1.994724E+01             3.089476E+01
                   9.9000            -2.399999E+01            -4.935524E+01            -1.726529E+01             6.200469E+00             2.399203E+01             1.996448E+01             3.121215E+01
                  10.0800            -2.442410E+01            -4.941674E+01            -1.764664E+01             6.206085E+00             2.439140E+01             1.998209E+01             3.153133E+01
                  10.2600            -2.484805E+01            -4.947866E+01            -1.802778E+01             6.211422E+00             2.479036E+01             2.000011E+01             3.185226E+01
                  10.4400            -2.527185E+01            -4.954101E+01            -1.840871E+01             6.216474E+00             2.518887E+01             2.001856E+01             3.217487E+01
                  10.6200            -2.569548E+01            -4.960379E+01            -1.878943E+01             6.221233E+00             2.558693E+01             2.003748E+01             3.249911E+01
                  10.8000            -2.611896E+01            -4.966701E+01            -1.916994E+01             6.225693E+00             2.598454E+01             2.005690E+01             3.282492E+01
                  10.9800            -2.654228E+01            -4.973069E+01            -1.955023E+01             6.229848E+00             2.638166E+01             2.007685E+01             3.315226E+01
                  11.1600            -2.696544E+01            -4.979484E+01            -1.993030E+01             6.233691E+00             2.677830E+01             2.009736E+01             3.348106E+01
                  11.3400            -2.738843E+01            -4.985945E+01            -2.031015E+01             6.237216E+00             2.717444E+01             2.011847E+01             3.381128E+01
                  11.5200            -2.781125E+01            -4.992454E+01            -2.068978E+01             6.240418E+00             2.757006E+01             2.014019E+01             3.414287E+01
                  11.7000            -2.823391E+01            -4.999011E+01            -2.106919E+01             6.243292E+00             2.796516E+01             2.016257E+01             3.447578E+01
                  11.8800            -2.865638E+01            -5.005616E+01            -2.144837E+01             6.245833E+00             2.835971E+01             2.018563E+01             3.480995E+01
                  12.0600            -2.907868E+01            -5.012270E+01            -2.182731E+01             6.248036E+00             2.875371E+01             2.020940E+01             3.514535E+01
                  12.2400            -2.950080E+01            -5.018973E+01            -2.220602E+01             6.249898E+00             2.914714E+01             2.023389E+01             3.548191E+01
                  12.4200            -2.992272E+01            -5.025726E+01            -2.258449E+01             6.251414E+00             2.953999E+01             2.025914E+01             3.581960E+01
                  12.6000            -3.034445E+01            -5.032528E+01            -2.296271E+01             6.252581E+00             2.993225E+01             2.028517E+01             3.615837E+01
                  12.7800            -3.076598E+01            -5.039379E+01            -2.334069E+01             6.253397E+00             3.032390E+01             2.031200E+01             3.649817E+01
                  12.9600            -3.118731E+01            -5.046280E+01            -2.371841E+01             6.253859E+00             3.071494E+01             2.033964E+01             3.683896E+01
                  13.1400            -3.160841E+01            -5.053229E+01            -2.409588E+01             6.253965E+00             3.110534E+01             2.036813E+01             3.718068E+01
                  13.3200            -3.202930E+01            -5.060227E+01            -2.447308E+01             6.253712E+00             3.149510E+01             2.039747E+01             3.752330E+01
                  13.5000            -3.244995E+01            -5.067272E+01            -2.485001E+01             6.253100E+00             3.188421E+01             2.042767E+01             3.786677E+01
                  13.6800            -3.287036E+01            -5.074366E+01            -2.522667E+01             6.252129E+00             3.227264E+01             2.045876E+01             3.821105E+01
                  13.8600            -3.329052E+01            -5.081506E+01            -2.560305E+01             6.250797E+00             3.266040E+01             2.049073E+01             3.855609E+01
                  14.0400            -3.371042E+01            -5.088692E+01            -2.597914E+01             6.249104E+00             3.304747E+01             2.052361E+01             3.890185E+01
                  14.2200            -3.413005E+01            -5.095924E+01            -2.635494E+01             6.247052E+00             3.343383E+01             2.055740E+01             3.924828E+01
                  14.4000            -3.454939E+01            -5.103199E+01            -2.673044E+01             6.244640E+00             3.381948E+01             2.059209E+01             3.959535E+01
                  14.5800            -3.496844E+01            -5.110518E+01            -2.710564E+01             6.241870E+00             3.420441E+01             2.062770E+01             3.994301E+01
                  14.7600            -3.538718E+01            -5.117879E+01            -2.748051E+01             6.238744E+00             3.458861E+01             2.066422E+01             4.029121E+01
                  14.9400            -3.580560E+01            -5.125280E+01            -2.785507E+01             6.235264E+00             3.497205E+01             2.070166E+01             4.063992E+01
                  15.1200            -3.622369E+01            -5.132721E+01            -2.822930E+01             6.231432E+00             3.535475E+01             2.074000E+01             4.098909E+01
                  15.3000            -3.664143E+01            -5.140200E+01            -2.860319E+01             6.227250E+00             3.573668E+01             2.077925E+01             4.133869E+01
                  15.4800            -3.705881E+01            -5.147716E+01            -2.897673E+01             6.222723E+00             3.611783E+01             2.081939E+01             4.168866E+01
                  15.6600            -3.747581E+01            -5.155266E+01            -2.934992E+01             6.217853E+00             3.649820E+01             2.086041E+01             4.203898E+01
                  15.8400            -3.789241E+01            -5.162850E+01            -2.972274E+01             6.212644E+00             3.687779E+01             2.090231E+01             4.238959E+01
                  16.0200            -3.830861E+01            -5.170466E+01            -3.009519E+01             6.207101E+00             3.725657E+01             2.094507E+01             4.274047E+01
                  16.2000            -3.872438E+01            -5.178111E+01            -3.046726E+01             6.201227E+00             3.763454E+01             2.098867E+01             4.309156E+01
                  16.3800            -3.913972E+01            -5.185784E+01            -3.083894E+01             6.195027E+00             3.801170E+01             2.103309E+01             4.344284E+01
                  16.5600            -3.955459E+01            -5.193484E+01            -3.121022E+01             6.188506E+00             3.838803E+01             2.107832E+01             4.379425E+01
                  16.7400            -3.996899E+01            -5.201208E+01            -3.158109E+01             6.181669E+00             3.876354E+01             2.112433E+01             4.414577E+01
                  16.9200            -4.038290E+01            -5.208954E+01            -3.195154E+01             6.174522E+00             3.913821E+01             2.117110E+01             4.449736E+01
                  17.1000            -4.079630E+01            -5.216721E+01            -3.232156E+01             6.167069E+00             3.951203E+01             2.121861E+01             4.484897E+01
                  17.2800            -4.120917E+01            -5.224506E+01            -3.269115E+01             6.159317E+00             3.988501E+01             2.126683E+01             4.520057E+01
                  17.4600            -4.162149E+01            -5.232307E+01            -3.306028E+01             6.151271E+00             4.025713E+01             2.131573E+01             4.555213E+01
