                   Degree              F_vhoc_n[N]              F_vhoc_t[N]                 F_1_n[N]                 F_2_n[N]                  F_cx[N]                  F_cy[N]           F_resultant[N]
                   0.0000            -1.013756E+00            -4.865224E+01             3.846913E+00             5.241290E+00             1.394377E+00             1.997005E+01             2.001867E+01
                   0.1800            -9.393386E-01            -4.711330E+01             3.597198E+00             5.851679E+00             2.261070E+00             1.925127E+01             1.938360E+01
                   0.3600            -1.493336E+00            -4.714692E+01             3.089291E+00             5.838786E+00             2.762794E+00             1.927994E+01             1.947689E+01
                   0.5400            -2.047697E+00            -4.718446E+01             2.581516E+00             5.826164E+00             3.264775E+00             1.931115E+01             1.958518E+01
                   0.7200            -2.601835E+00            -4.722483E+01             2.074200E+00             5.814231E+00             3.767100E+00             1.934430E+01             1.970769E+01
                   0.9000            -3.155328E+00            -4.726736E+01             1.567618E+00             5.803215E+00             4.269719E+00             1.937899E+01             1.984379E+01
                   1.0800            -3.707977E+00            -4.731167E+01             1.061878E+00             5.793257E+00             4.772659E+00             1.941496E+01             1.999297E+01
                   1.2600            -4.259769E+00            -4.735755E+01             5.569453E-01             5.784433E+00             5.276029E+00             1.945200E+01             2.015482E+01
                   1.4400            -4.810579E+00            -4.740488E+01             5.291653E-02             5.776776E+00             5.779761E+00             1.948995E+01             2.032889E+01
                   1.6200            -5.360385E+00            -4.745359E+01            -4.502007E-01             5.770303E+00             6.283864E+00             1.952870E+01             2.051480E+01
                   1.8000            -5.909140E+00            -4.750363E+01            -9.523699E-01             5.765020E+00             6.788304E+00             1.956813E+01             2.071214E+01
                   1.9800            -6.456889E+00            -4.755500E+01            -1.453636E+00             5.760924E+00             7.293125E+00             1.960813E+01             2.092053E+01
                   2.1600            -7.003579E+00            -4.760768E+01            -1.953951E+00             5.758011E+00             7.798269E+00             1.964861E+01             2.113956E+01
                   2.3400            -7.549236E+00            -4.766166E+01            -2.453337E+00             5.756271E+00             8.303754E+00             1.968949E+01             2.136886E+01
                   2.5200            -8.093843E+00            -4.771696E+01            -2.951777E+00             5.755696E+00             8.809552E+00             1.973066E+01             2.160804E+01
                   2.7000            -8.637397E+00            -4.777358E+01            -3.449268E+00             5.756277E+00             9.315651E+00             1.977205E+01             2.185670E+01
                   2.8800            -9.179911E+00            -4.783152E+01            -3.945818E+00             5.758003E+00             9.822052E+00             1.981358E+01             2.211449E+01
                   3.0600            -9.721368E+00            -4.789078E+01            -4.441410E+00             5.760865E+00             1.032873E+01             1.985515E+01             2.238101E+01
                   3.2400            -1.026178E+01            -4.795138E+01            -4.936052E+00             5.764852E+00             1.083568E+01             1.989670E+01             2.265592E+01
                   3.4200            -1.080115E+01            -4.801333E+01            -5.429745E+00             5.769955E+00             1.134290E+01             1.993813E+01             2.293884E+01
                   3.6000            -1.133947E+01            -4.807662E+01            -5.922480E+00             5.776164E+00             1.185038E+01             1.997938E+01             2.322944E+01
                   3.7800            -1.187674E+01            -4.814127E+01            -6.414255E+00             5.783467E+00             1.235810E+01             2.002035E+01             2.352737E+01
                   3.9600            -1.241298E+01            -4.820728E+01            -6.905077E+00             5.791855E+00             1.286607E+01             2.006099E+01             2.383231E+01
                   4.1400            -1.294817E+01            -4.827465E+01            -7.394936E+00             5.801313E+00             1.337426E+01             2.010120E+01             2.414392E+01
                   4.3200            -1.348233E+01            -4.834338E+01            -7.883845E+00             5.811821E+00             1.388267E+01             2.014092E+01             2.446191E+01
                   4.5000            -1.401549E+01            -4.841343E+01            -8.371821E+00             5.823331E+00             1.439128E+01             2.018008E+01             2.478598E+01
                   4.6800            -1.454797E+01            -4.848425E+01            -8.859157E+00             5.835424E+00             1.489996E+01             2.021872E+01             2.511584E+01
                   4.8600            -1.508022E+01            -4.855507E+01            -9.346264E+00             5.847497E+00             1.540849E+01             2.025693E+01             2.545123E+01
                   5.0400            -1.561227E+01            -4.862587E+01            -9.833156E+00             5.859519E+00             1.591686E+01             2.029474E+01             2.579192E+01
                   5.2200            -1.614410E+01            -4.869666E+01            -1.031983E+01             5.871482E+00             1.642506E+01             2.033216E+01             2.613770E+01
                   5.4000            -1.667572E+01            -4.876745E+01            -1.080628E+01             5.883377E+00             1.693308E+01             2.036920E+01             2.648836E+01
                   5.5800            -1.720712E+01            -4.883826E+01            -1.129250E+01             5.895198E+00             1.744090E+01             2.040586E+01             2.684370E+01
                   5.7600            -1.773830E+01            -4.890910E+01            -1.177850E+01             5.906936E+00             1.794852E+01             2.044217E+01             2.720352E+01
                   5.9400            -1.826925E+01            -4.897997E+01            -1.226426E+01             5.918584E+00             1.845591E+01             2.047813E+01             2.756764E+01
                   6.1200            -1.879997E+01            -4.905090E+01            -1.274978E+01             5.930134E+00             1.896307E+01             2.051377E+01             2.793587E+01
                   6.3000            -1.933046E+01            -4.912189E+01            -1.323507E+01             5.941578E+00             1.947000E+01             2.054909E+01             2.830805E+01
                   6.4800            -1.986071E+01            -4.919295E+01            -1.372011E+01             5.952907E+00             1.997666E+01             2.058411E+01             2.868401E+01
                   6.6600            -2.039072E+01            -4.926411E+01            -1.420491E+01             5.964115E+00             2.048306E+01             2.061885E+01             2.906360E+01
                   6.8400            -2.092049E+01            -4.933536E+01            -1.468946E+01             5.975194E+00             2.098918E+01             2.065332E+01             2.944665E+01
                   7.0200            -2.145001E+01            -4.940672E+01            -1.517375E+01             5.986135E+00             2.149502E+01             2.068755E+01             2.983304E+01
                   7.2000            -2.197928E+01            -4.947821E+01            -1.565779E+01             5.996930E+00             2.200054E+01             2.072154E+01             3.022261E+01
                   7.3800            -2.250830E+01            -4.954983E+01            -1.614157E+01             6.007572E+00             2.250576E+01             2.075533E+01             3.061524E+01
                   7.5600            -2.303706E+01            -4.962161E+01            -1.662508E+01             6.018053E+00             2.301064E+01             2.078893E+01             3.101079E+01
                   7.7400            -2.356557E+01            -4.969354E+01            -1.710833E+01             6.028364E+00             2.351519E+01             2.082236E+01             3.140915E+01
                   7.9200            -2.409381E+01            -4.976564E+01            -1.759131E+01             6.038499E+00             2.401938E+01             2.085564E+01             3.181019E+01
                   8.1000            -2.462179E+01            -4.983793E+01            -1.807402E+01             6.048448E+00             2.452321E+01             2.088880E+01             3.221381E+01
                   8.2800            -2.514950E+01            -4.991042E+01            -1.855646E+01             6.058205E+00             2.502666E+01             2.092186E+01             3.261990E+01
                   8.4600            -2.567694E+01            -4.998311E+01            -1.903861E+01             6.067761E+00             2.552971E+01             2.095483E+01             3.302834E+01
                   8.6400            -2.620411E+01            -5.005602E+01            -1.952048E+01             6.077110E+00             2.603237E+01             2.098776E+01             3.343905E+01
                   8.8200            -2.673099E+01            -5.012916E+01            -2.000207E+01             6.086242E+00             2.653460E+01             2.102065E+01             3.385192E+01
                   9.0000            -2.725761E+01            -5.020255E+01            -2.048337E+01             6.095150E+00             2.703641E+01             2.105353E+01             3.426687E+01
                   9.1800            -2.778393E+01            -5.027618E+01            -2.096437E+01             6.103828E+00             2.753777E+01             2.108643E+01             3.468381E+01
                   9.3600            -2.830997E+01            -5.035008E+01            -2.144509E+01             6.112268E+00             2.803868E+01             2.111937E+01             3.510264E+01
                   9.5400            -2.883572E+01            -5.042425E+01            -2.192550E+01             6.120461E+00             2.853912E+01             2.115238E+01             3.552329E+01
                   9.7200            -2.936118E+01            -5.049870E+01            -2.240561E+01             6.128402E+00             2.903907E+01             2.118548E+01             3.594568E+01
                   9.9000            -2.988634E+01            -5.057344E+01            -2.288541E+01             6.136083E+00             2.953852E+01             2.121871E+01             3.636974E+01
                  10.0800            -3.041120E+01            -5.064849E+01            -2.336491E+01             6.143497E+00             3.003747E+01             2.125207E+01             3.679538E+01
                  10.2600            -3.093575E+01            -5.072384E+01            -2.384409E+01             6.150638E+00             3.053589E+01             2.128561E+01             3.722254E+01
                  10.4400            -3.146000E+01            -5.079951E+01            -2.432295E+01             6.157498E+00             3.103377E+01             2.131934E+01             3.765115E+01
                  10.6200            -3.198393E+01            -5.087551E+01            -2.480150E+01             6.164072E+00             3.153110E+01             2.135329E+01             3.808115E+01
                  10.8000            -3.250754E+01            -5.095184E+01            -2.527971E+01             6.170354E+00             3.202787E+01             2.138749E+01             3.851245E+01
                  10.9800            -3.303082E+01            -5.102850E+01            -2.575760E+01             6.176336E+00             3.252406E+01             2.142196E+01             3.894502E+01
                  11.1600            -3.355378E+01            -5.110551E+01            -2.623516E+01             6.182015E+00             3.301965E+01             2.145672E+01             3.937878E+01
                  11.3400            -3.407641E+01            -5.118288E+01            -2.671238E+01             6.187383E+00             3.351464E+01             2.149180E+01             3.981367E+01
                  11.5200            -3.459869E+01            -5.126059E+01            -2.718925E+01             6.192435E+00             3.400901E+01             2.152722E+01             4.024964E+01
                  11.7000            -3.512063E+01            -5.133867E+01            -2.766578E+01             6.197168E+00             3.450274E+01             2.156301E+01             4.068663E+01
                  11.8800            -3.564222E+01            -5.141711E+01            -2.814195E+01             6.201575E+00             3.499582E+01             2.159918E+01             4.112459E+01
                  12.0600            -3.616344E+01            -5.149591E+01            -2.861777E+01             6.205653E+00             3.548825E+01             2.163576E+01             4.156346E+01
                  12.2400            -3.668430E+01            -5.157508E+01            -2.909323E+01             6.209396E+00             3.597999E+01             2.167276E+01             4.200320E+01
                  12.4200            -3.720478E+01            -5.165462E+01            -2.956832E+01             6.212802E+00             3.647105E+01             2.171022E+01             4.244374E+01
                  12.6000            -3.772489E+01            -5.173453E+01            -3.004303E+01             6.215867E+00             3.696141E+01             2.174813E+01             4.288504E+01
                  12.7800            -3.824460E+01            -5.181480E+01            -3.051736E+01             6.218586E+00             3.745105E+01             2.178653E+01             4.332706E+01
                  12.9600            -3.876391E+01            -5.189544E+01            -3.099131E+01             6.220958E+00             3.793996E+01             2.182543E+01             4.376973E+01
                  13.1400            -3.928281E+01            -5.197645E+01            -3.146487E+01             6.222980E+00             3.842813E+01             2.186483E+01             4.421303E+01
                  13.3200            -3.980130E+01            -5.205782E+01            -3.193803E+01             6.224648E+00             3.891554E+01             2.190477E+01             4.465689E+01
                  13.5000            -4.031935E+01            -5.213955E+01            -3.241079E+01             6.225962E+00             3.940218E+01             2.194524E+01             4.510128E+01
                  13.6800            -4.083697E+01            -5.222164E+01            -3.288313E+01             6.226918E+00             3.988804E+01             2.198626E+01             4.554615E+01
                  13.8600            -4.135414E+01            -5.230407E+01            -3.335506E+01             6.227517E+00             4.037311E+01             2.202783E+01             4.599145E+01
                  14.0400            -4.187085E+01            -5.238685E+01            -3.382656E+01             6.227757E+00             4.085737E+01             2.206997E+01             4.643715E+01
                  14.2200            -4.238708E+01            -5.246997E+01            -3.429762E+01             6.227637E+00             4.134082E+01             2.211268E+01             4.688320E+01
                  14.4000            -4.290283E+01            -5.255342E+01            -3.476825E+01             6.227156E+00             4.182343E+01             2.215597E+01             4.732955E+01
                  14.5800            -4.341809E+01            -5.263719E+01            -3.523843E+01             6.226315E+00             4.230520E+01             2.219984E+01             4.777617E+01
                  14.7600            -4.393283E+01            -5.272127E+01            -3.570815E+01             6.225114E+00             4.278611E+01             2.224429E+01             4.822302E+01
                  14.9400            -4.444705E+01            -5.280566E+01            -3.617741E+01             6.223553E+00             4.326616E+01             2.228931E+01             4.867006E+01
                  15.1200            -4.496073E+01            -5.289034E+01            -3.664619E+01             6.221633E+00             4.374534E+01             2.233492E+01             4.911724E+01
                  15.3000            -4.547386E+01            -5.297531E+01            -3.711450E+01             6.219355E+00             4.422362E+01             2.238110E+01             4.956452E+01
                  15.4800            -4.598643E+01            -5.306054E+01            -3.758231E+01             6.216721E+00             4.470101E+01             2.242785E+01             5.001188E+01
                  15.6600            -4.649841E+01            -5.314604E+01            -3.804963E+01             6.213732E+00             4.517748E+01             2.247516E+01             5.045927E+01
                  15.8400            -4.700980E+01            -5.323179E+01            -3.851644E+01             6.210389E+00             4.565304E+01             2.252303E+01             5.090665E+01
                  16.0200            -4.752058E+01            -5.331777E+01            -3.898273E+01             6.206696E+00             4.612767E+01             2.257144E+01             5.135399E+01
                  16.2000            -4.803073E+01            -5.340397E+01            -3.944849E+01             6.202654E+00             4.660136E+01             2.262039E+01             5.180124E+01
                  16.3800            -4.854024E+01            -5.349038E+01            -3.991372E+01             6.198267E+00             4.707410E+01             2.266986E+01             5.224838E+01
                  16.5600            -4.904910E+01            -5.357698E+01            -4.037841E+01             6.193535E+00             4.754588E+01             2.271984E+01             5.269537E+01
                  16.7400            -4.955727E+01            -5.366376E+01            -4.084254E+01             6.188464E+00             4.801670E+01             2.277032E+01             5.314217E+01
                  16.9200            -5.006476E+01            -5.375071E+01            -4.130611E+01             6.183055E+00             4.848654E+01             2.282127E+01             5.358876E+01
                  17.1000            -5.057154E+01            -5.383781E+01            -4.176910E+01             6.177312E+00             4.895540E+01             2.287267E+01             5.403508E+01
                  17.2800            -5.107759E+01            -5.392503E+01            -4.223151E+01             6.171239E+00             4.942327E+01             2.292452E+01             5.448113E+01
                  17.4600            -5.158291E+01            -5.401238E+01            -4.269333E+01             6.164838E+00             4.989014E+01             2.297679E+01             5.492685E+01
